255
255
79
1
254
254
255
255
87
1
254
254
255
255
249
0
254
254
255
255
20
1
254
254
255
255
74
1
254
254
255
255
98
1
254
254
255
255
92
1
254
254
255
255
89
1
254
254
255
255
53
1
254
254
255
255
75
1
254
254
255
255
97
1
254
254
255
255
94
1
254
254
255
255
90
1
254
254
255
255
86
1
254
254
255
255
86
1
254
254
255
255
90
1
254
254
255
255
91
1
254
254
255
255
90
1
254
254
255
255
68
1
254
254
255
255
56
1
254
254
255
255
83
1
254
254
255
255
84
1
254
254
255
255
82
1
254
254
255
255
89
1
254
254
255
255
74
1
254
254
255
255
82
1
254
254
255
255
76
1
254
254
255
255
77
1
254
254
255
255
86
1
254
254
255
255
83
1
254
254
255
255
78
1
254
254
255
255
88
1
254
254
255
255
56
1
254
254
255
255
74
1
254
254
255
255
91
1
254
254
255
255
65
1
254
254
255
255
84
1
254
254
255
255
63
1
254
254
255
255
76
1
254
254
255
255
89
1
254
254
255
255
73
1
254
254
255
255
82
1
254
254
255
255
91
1
254
254
255
255
91
1
254
254
255
255
89
1
254
254
255
255
84
1
254
254
255
255
77
1
254
254
255
255
89
1
254
254
255
255
85
1
254
254
255
255
87
1
254
254
255
255
90
1
254
254
255
255
80
1
254
254
255
255
88
1
254
254
255
255
87
1
254
254
255
255
86
1
254
254
255
255
89
1
254
254
255
255
63
1
254
254
255
255
77
1
254
254
255
255
90
1
254
254
255
255
73
1
254
254
255
255
86
1
254
254
255
255
103
1
254
254
255
255
96
1
254
254
255
255
89
1
254
254
255
255
81
1
254
254
255
255
87
1
254
254
255
255
91
1
254
254
255
255
73
1
254
254
255
255
86
1
254
254
255
255
73
1
254
254
255
255
59
1
254
254
255
255
87
1
254
254
255
255
77
1
254
254
255
255
83
1
254
254
255
255
89
1
254
254
255
255
103
1
254
254
255
255
93
1
254
254
255
255
85
1
254
254
255
255
75
1
254
254
255
255
88
1
254
254
255
255
85
1
254
254
255
255
86
1
254
254
255
255
90
1
254
254
255
255
55
1
254
254
255
255
81
1
254
254
255
255
84
1
254
254
255
255
73
1
254
254
255
255
89
1
254
254
255
255
29
1
254
254
255
255
58
1
254
254
255
255
92
1
254
254
255
255
102
1
254
254
255
255
92
1
254
254
255
255
86
1
254
254
255
255
79
1
254
254
255
255
88
1
254
254
255
255
97
1
254
254
255
255
92
1
254
254
255
255
90
1
254
254
255
255
81
1
254
254
255
255
87
1
254
254
255
255
83
1
254
254
255
255
72
1
254
254
255
255
88
1
254
254
255
255
93
1
254
254
255
255
90
1
254
254
255
255
89
1
254
254
255
255
71
1
254
254
255
255
84
1
254
254
255
255
87
1
254
254
255
255
86
1
254
254
255
255
89
1
254
254
255
255
74
1
254
254
255
255
79
1
254
254
255
255
90
1
254
254
255
255
62
1
254
254
255
255
81
1
254
254
255
255
79
1
254
254
255
255
81
1
254
254
255
255
88
1
254
254
255
255
81
1
254
254
48
55
52
51
49
48
255
255
88
1
254
254
255
255
89
1
254
254
11
88
11
255
255
89
1
254
254
255
255
90
1
254
254
255
255
85
1
254
254
255
255
85
1
254
254
255
255
88
1
254
254
255
255
89
1
254
254
255
255
75
1
254
254
255
255
69
1
254
254
255
255
80
1
254
254
255
255
89
1
254
254
255
255
76
1
254
254
255
255
83
1
254
254
255
255
89
1
254
254
255
255
84
1
254
254
255
255
73
1
254
254
255
255
80
1
254
254
255
255
87
1
254
254
255
255
96
1
254
254
255
255
93
1
254
254
255
255
90
1
254
254
255
255
80
1
254
254
255
255
83
1
254
254
255
255
89
1
254
254
255
255
72
1
254
254
255
255
77
1
254
254
255
255
86
1
254
254
255
255
90
1
254
254
255
255
93
1
254
254
255
255
91
1
254
254
255
255
91
1
254
254
255
255
90
1
254
254
255
255
90
1
254
254
255
255
90
1
254
254
255
255
91
1
254
254
255
255
90
1
254
254
255
255
83
1
254
254
255
255
84
1
254
254
255
255
89
1
254
254
255
255
86
1
254
254
255
255
82
1
254
254
255
255
90
1
254
254
255
255
70
1
254
254
255
255
81
1
254
254
255
255
91
1
254
254
255
255
63
1
254
254
255
255
83
1
254
254
255
255
83
1
254
254
255
255
79
1
254
254
255
255
89
1
254
254
255
255
75
1
254
254
255
255
83
1
254
254
255
255
90
1
254
254
255
255
82
1
254
254
255
255
88
1
254
254
255
255
85
1
254
254
255
255
80
1
254
254
255
255
89
1
254
254
255
255
79
1
254
254
255
255
85
1
254
254
255
255
90
1
254
254
255
255
87
1
254
254
255
255
88
1
254
254
255
255
92
1
254
254
255
255
91
1
254
254
255
255
91
1
254
254
255
255
102
1
254
254
255
255
94
1
254
254
255
255
89
1
254
254
255
255
75
1
254
254
255
255
87
1
254
254
255
255
57
1
254
254
255
255
34
1
254
254
255
255
86
1
254
254
255
255
79
1
254
254
255
255
84
1
254
254
255
255
91
1
254
254
255
255
64
1
254
254
255
255
84
1
254
254
255
255
89
1
254
254
255
255
80
1
254
254
255
255
88
1
254
254
255
255
27
1
254
254
255
255
56
1
254
254
255
255
92
1
254
254
255
255
54
1
254
254
255
255
81
1
254
254
255
255
95
1
254
254
255
255
94
1
254
254
255
255
90
1
254
254
255
255
87
1
254
254
255
255
84
1
254
254
255
255
89
1
254
254
255
255
84
1
254
254
255
255
88
1
254
254
255
255
90
1
254
254
255
255
90
1
254
254
255
255
90
1
254
254
255
255
81
1
254
254
255
255
84
1
254
254
255
255
91
1
254
254
255
255
81
1
254
254
255
255
87
1
254
254
255
255
86
1
254
254
255
255
62
1
254
254
255
255
87
1
254
254
255
255
73
1
254
254
255
255
78
1
254
254
255
255
91
1
254
254
255
255
80
1
254
254
255
255
86
1
254
254
255
255
76
1
254
254
255
255
79
1
254
254
255
255
89
1
254
254
255
255
95
1
254
254
255
255
93
1
254
254
255
255
89
1
254
254
255
255
83
1
254
254
255
255
88
1
254
254
255
255
77
1
254
254
255
255
82
1
254
254
255
255
89
1
254
254
255
255
81
1
254
254
255
255
85
1
254
254
255
255
90
1
254
254
255
255
58
1
254
254
255
255
80
1
254
254
255
255
35
1
254
254
255
255
41
1
254
254
255
255
83
1
254
254
255
255
45
1
254
254
255
255
59
1
254
254
255
255
90
1
254
254
255
255
91
1
254
254
255
255
89
1
254
254
255
255
110
1
254
254
255
255
102
1
254
254
255
255
92
1
254
254
255
255
95
1
254
254
255
255
93
1
254
254
255
255
91
1
254
254
255
255
70
1
254
254
255
255
80
1
254
254
255
255
46
1
254
254
255
255
55
1
254
254
255
255
85
1
254
254
255
255
87
1
254
254
255
255
83
1
254
254
255
255
89
1
254
254
255
255
82
1
254
254
255
255
87
1
254
254
255
255
86
1
254
254
255
255
87
1
254
254
255
255
89
1
254
254
255
255
37
1
254
254
255
255
50
1
254
254
255
255
90
1
254
254
255
255
79
1
254
254
255
255
85
1
254
254
255
255
70
1
254
254
255
255
76
1
254
254
255
255
87
1
254
254
255
255
48
1
254
254
255
255
58
1
254
254
255
255
90
1
254
254
255
255
65
1
254
254
11
88
11
255
255
71
1
254
254
255
255
72
1
254
254
255
255
83
1
254
254
255
255
90
1
254
254
255
255
62
1
254
254
255
255
58
1
254
254
255
255
78
1
254
254
255
255
90
1
254
254
255
255
91
1
254
254
255
255
85
1
254
254
255
255
87
1
254
254
255
255
90
1
254
254
255
255
65
1
254
254
255
255
84
1
254
254
255
255
91
1
254
254
255
255
87
1
254
254
255
255
90
1
254
254
255
255
81
1
254
254
255
255
86
1
254
254
255
255
91
1
254
254
255
255
84
1
254
254
255
255
88
1
254
254
255
255
85
1
254
254
255
255
76
1
254
254
255
255
88
1
254
254
255
255
57
1
254
254
255
255
72
1
254
254
255
255
87
1
254
254
255
255
54
1
254
254
255
255
81
1
254
254
255
255
70
1
254
254
255
255
79
1
254
254
255
255
88
1
254
254
255
255
81
1
254
254
255
255
84
1
254
254
255
255
90
1
254
254
255
255
92
1
254
254
255
255
90
1
254
254
255
255
88
1
254
254
255
255
77
1
254
254
255
255
88
1
254
254
255
255
89
1
254
254
255
255
86
1
254
254
255
255
89
1
254
254
255
255
251
0
254
254
255
255
63
1
254
254
255
255
80
1
254
254
255
255
82
1
254
254
255
255
88
1
254
254
255
255
86
1
254
254
255
255
87
1
254
254
255
255
90
1
254
254
255
255
72
1
254
254
255
255
85
1
254
254
255
255
65
1
254
254
255
255
73
1
254
254
255
255
86
1
254
254
255
255
68
1
254
254
255
255
76
1
254
254
255
255
91
1
254
254
255
255
69
1
254
254
255
255
83
1
254
254
255
255
18
1
254
254
255
255
47
1
254
254
255
255
83
1
254
254
255
255
95
1
254
254
255
255
93
1
254
254
255
255
92
1
254
254
255
255
56
1
254
254
255
255
78
1
254
254
255
255
83
1
254
254
255
255
81
1
254
254
255
255
91
1
254
254
255
255
91
1
254
254
255
255
90
1
254
254
255
255
86
1
254
254
255
255
75
1
254
254
255
255
87
1
254
254
255
255
72
1
254
254
255
255
76
1
254
254
255
255
89
1
254
254
255
255
34
1
254
254
255
255
52
1
254
254
255
255
92
1
254
254
255
255
96
1
254
254
255
255
90
1
254
254
255
255
82
1
254
254
255
255
85
1
254
254
255
255
88
1
254
254
255
255
90
1
254
254
255
255
90
1
254
254
255
255
88
1
254
254
255
255
91
1
254
254
255
255
92
1
254
254
255
255
73
1
254
254
255
255
79
1
254
254
255
255
88
1
254
254
255
255
91
1
254
254
255
255
92
1
254
254
255
255
90
1
254
254
255
255
58
1
254
254
255
255
75
1
254
254
255
255
106
1
254
254
255
255
101
1
254
254
255
255
94
1
254
254
255
255
74
1
254
254
255
255
76
1
254
254
255
255
90
1
254
254
255
255
78
1
254
254
255
255
86
1
254
254
255
255
89
1
254
254
255
255
88
1
254
254
255
255
90
1
254
254
255
255
24
1
254
254
255
255
33
1
254
254
255
255
86
1
254
254
255
255
64
1
254
254
255
255
79
1
254
254
255
255
67
1
254
254
255
255
70
1
254
254
255
255
87
1
254
254
255
255
94
1
254
254
255
255
90
1
254
254
255
255
86
1
254
254
255
255
91
1
254
254
255
255
88
1
254
254
255
255
68
1
254
254
255
255
75
1
254
254
255
255
87
1
254
254
255
255
76
1
254
254
255
255
80
1
254
254
255
255
86
1
254
254
255
255
59
1
254
254
255
255
73
1
254
254
255
255
86
1
254
254
255
255
90
1
254
254
255
255
90
1
254
254
255
255
78
1
254
254
255
255
78
1
254
254
255
255
90
1
254
254
255
255
76
1
254
254
255
255
83
1
254
254
255
255
73
1
254
254
255
255
79
1
254
254
255
255
86
1
254
254
255
255
89
1
254
254
255
255
87
1
254
254
255
255
90
1
254
254
255
255
80
1
254
254
255
255
84
1
254
254
255
255
91
1
254
254
255
255
86
1
254
254
48
55
52
51
49
48
255
255
90
1
254
254
11
88
11
255
255
85
1
254
254
255
255
53
1
254
254
255
255
41
1
254
254
255
255
67
1
254
254
255
255
88
1
254
254
255
255
91
1
254
254
255
255
89
1
254
254
255
255
90
1
254
254
255
255
81
1
254
254
255
255
84
1
254
254
255
255
89
1
254
254
255
255
80
1
254
254
255
255
80
1
254
254
255
255
84
1
254
254
255
255
100
1
254
254
255
255
93
1
254
254
255
255
91
1
254
254
255
255
80
1
254
254
255
255
81
1
254
254
255
255
89
1
254
254
255
255
90
1
254
254
255
255
82
1
254
254
255
255
81
1
254
254
255
255
86
1
254
254
255
255
91
1
254
254
255
255
46
1
254
254
255
255
34
1
254
254
255
255
67
1
254
254
255
255
89
1
254
254
255
255
86
1
254
254
255
255
80
1
254
254
255
255
82
1
254
254
255
255
87
1
254
254
255
255
92
1
254
254
255
255
89
1
254
254
255
255
86
1
254
254
255
255
87
1
254
254
255
255
87
1
254
254
255
255
90
1
254
254
255
255
72
1
254
254
255
255
84
1
254
254
255
255
87
1
254
254
255
255
86
1
254
254
255
255
85
1
254
254
255
255
79
1
254
254
255
255
82
1
254
254
255
255
86
1
254
254
255
255
80
1
254
254
255
255
84
1
254
254
255
255
104
1
254
254
255
255
98
1
254
254
255
255
91
1
254
254
255
255
81
1
254
254
255
255
86
1
254
254
255
255
91
1
254
254
255
255
72
1
254
254
255
255
82
1
254
254
255
255
86
1
254
254
255
255
89
1
254
254
255
255
86
1
254
254
255
255
79
1
254
254
255
255
80
1
254
254
255
255
89
1
254
254
255
255
30
1
254
254
255
255
66
1
254
254
255
255
91
1
254
254
255
255
87
1
254
254
255
255
90
1
254
254
255
255
75
1
254
254
255
255
78
1
254
254
255
255
85
1
254
254
255
255
57
1
254
254
255
255
75
1
254
254
255
255
88
1
254
254
255
255
88
1
254
254
255
255
87
1
254
254
255
255
93
1
254
254
255
255
94
1
254
254
255
255
89
1
254
254
255
255
61
1
254
254
255
255
79
1
254
254
255
255
80
1
254
254
255
255
81
1
254
254
255
255
83
1
254
254
255
255
75
1
254
254
255
255
73
1
254
254
255
255
89
1
254
254
255
255
68
1
254
254
255
255
78
1
254
254
255
255
79
1
254
254
255
255
82
1
254
254
255
255
88
1
254
254
255
255
81
1
254
254
255
255
75
1
254
254
255
255
90
1
254
254
255
255
91
1
254
254
255
255
86
1
254
254
255
255
93
1
254
254
255
255
91
1
254
254
255
255
87
1
254
254
255
255
77
1
254
254
255
255
82
1
254
254
255
255
90
1
254
254
255
255
79
1
254
254
255
255
82
1
254
254
255
255
85
1
254
254
255
255
81
1
254
254
255
255
85
1
254
254
255
255
93
1
254
254
255
255
89
1
254
254
255
255
90
1
254
254
255
255
88
1
254
254
255
255
87
1
254
254
255
255
92
1
254
254
255
255
63
1
254
254
255
255
81
1
254
254
255
255
91
1
254
254
255
255
88
1
254
254
255
255
90
1
254
254
255
255
90
1
254
254
255
255
90
1
254
254
255
255
91
1
254
254
255
255
48
1
254
254
255
255
77
1
254
254
255
255
76
1
254
254
255
255
65
1
254
254
255
255
85
1
254
254
255
255
50
1
254
254
255
255
70
1
254
254
255
255
92
1
254
254
255
255
93
1
254
254
255
255
87
1
254
254
255
255
73
1
254
254
255
255
82
1
254
254
255
255
89
1
254
254
255
255
75
1
254
254
255
255
82
1
254
254
255
255
91
1
254
254
255
255
74
1
254
254
255
255
87
1
254
254
255
255
91
1
254
254
255
255
84
1
254
254
255
255
85
1
254
254
255
255
97
1
254
254
255
255
94
1
254
254
255
255
90
1
254
254
255
255
76
1
254
254
255
255
87
1
254
254
255
255
82
1
254
254
255
255
69
1
254
254
255
255
85
1
254
254
255
255
44
1
254
254
255
255
64
1
254
254
255
255
88
1
254
254
255
255
40
1
254
254
255
255
75
1
254
254
255
255
84
1
254
254
255
255
72
1
254
254
255
255
85
1
254
254
255
255
73
1
254
254
255
255
79
1
254
254
255
255
87
1
254
254
255
255
78
1
254
254
255
255
84
1
254
254
255
255
65
1
254
254
255
255
28
1
254
254
11
88
11
255
255
74
1
254
254
255
255
80
1
254
254
255
255
89
1
254
254
255
255
74
1
254
254
255
255
82
1
254
254
255
255
86
1
254
254
255
255
86
1
254
254
255
255
70
1
254
254
255
255
73
1
254
254
255
255
84
1
254
254
255
255
91
1
254
254
255
255
78
1
254
254
255
255
83
1
254
254
255
255
89
1
254
254
255
255
82
1
254
254
255
255
87
1
254
254
255
255
90
1
254
254
255
255
96
1
254
254
255
255
96
1
254
254
255
255
81
1
254
254
255
255
81
1
254
254
255
255
91
1
254
254
255
255
82
1
254
254
255
255
87
1
254
254
255
255
90
1
254
254
255
255
75
1
254
254
255
255
87
1
254
254
255
255
73
1
254
254
255
255
83
1
254
254
255
255
91
1
254
254
255
255
94
1
254
254
255
255
91
1
254
254
255
255
91
1
254
254
255
255
86
1
254
254
255
255
91
1
254
254
255
255
84
1
254
254
255
255
83
1
254
254
255
255
90
1
254
254
255
255
76
1
254
254
255
255
84
1
254
254
255
255
91
1
254
254
255
255
83
1
254
254
255
255
89
1
254
254
255
255
96
1
254
254
255
255
94
1
254
254
255
255
90
1
254
254
255
255
74
1
254
254
255
255
83
1
254
254
255
255
91
1
254
254
255
255
83
1
254
254
255
255
89
1
254
254
255
255
60
1
254
254
255
255
47
1
254
254
255
255
87
1
254
254
255
255
92
1
254
254
255
255
89
1
254
254
255
255
90
1
254
254
255
255
91
1
254
254
255
255
90
1
254
254
255
255
80
1
254
254
255
255
74
1
254
254
255
255
88
1
254
254
255
255
94
1
254
254
255
255
91
1
254
254
255
255
89
1
254
254
255
255
61
1
254
254
255
255
82
1
254
254
255
255
73
1
254
254
255
255
84
1
254
254
255
255
88
1
254
254
255
255
70
1
254
254
255
255
81
1
254
254
255
255
91
1
254
254
255
255
86
1
254
254
255
255
89
1
254
254
255
255
54
1
254
254
255
255
28
1
254
254
255
255
84
1
254
254
255
255
94
1
254
254
255
255
90
1
254
254
255
255
89
1
254
254
255
255
84
1
254
254
255
255
86
1
254
254
255
255
72
1
254
254
255
255
66
1
254
254
255
255
87
1
254
254
255
255
89
1
254
254
255
255
88
1
254
254
255
255
89
1
254
254
255
255
85
1
254
254
255
255
88
1
254
254
255
255
81
1
254
254
255
255
70
1
254
254
255
255
86
1
254
254
255
255
90
1
254
254
255
255
88
1
254
254
255
255
87
1
254
254
255
255
53
1
254
254
255
255
79
1
254
254
255
255
83
1
254
254
255
255
82
1
254
254
255
255
87
1
254
254
255
255
86
1
254
254
255
255
87
1
254
254
255
255
87
1
254
254
255
255
90
1
254
254
255
255
88
1
254
254
255
255
91
1
254
254
255
255
88
1
254
254
255
255
88
1
254
254
255
255
96
1
254
254
255
255
91
1
254
254
255
255
87
1
254
254
255
255
90
1
254
254
255
255
87
1
254
254
255
255
90
1
254
254
255
255
87
1
254
254
255
255
86
1
254
254
255
255
56
1
254
254
255
255
68
1
254
254
255
255
88
1
254
254
255
255
97
1
254
254
255
255
90
1
254
254
255
255
87
1
254
254
255
255
86
1
254
254
255
255
87
1
254
254
255
255
87
1
254
254
255
255
88
1
254
254
255
255
89
1
254
254
255
255
88
1
254
254
255
255
88
1
254
254
255
255
90
1
254
254
255
255
90
1
254
254
255
255
86
1
254
254
255
255
63
1
254
254
255
255
71
1
254
254
255
255
84
1
254
254
255
255
71
1
254
254
255
255
81
1
254
254
255
255
86
1
254
254
255
255
85
1
254
254
255
255
85
1
254
254
255
255
82
1
254
254
255
255
83
1
254
254
255
255
84
1
254
254
255
255
73
1
254
254
255
255
79
1
254
254
255
255
60
1
254
254
255
255
67
1
254
254
255
255
80
1
254
254
255
255
83
1
254
254
255
255
79
1
254
254
48
55
52
51
49
48
255
255
90
1
254
254
255
255
90
1
254
254
11
88
11
255
255
93
1
254
254
255
255
91
1
254
254
255
255
87
1
254
254
255
255
88
1
254
254
255
255
68
1
254
254
255
255
75
1
254
254
255
255
82
1
254
254
255
255
88
1
254
254
255
255
85
1
254
254
255
255
83
1
254
254
255
255
88
1
254
254
255
255
88
1
254
254
255
255
83
1
254
254
255
255
77
1
254
254
255
255
82
1
254
254
255
255
86
1
254
254
255
255
41
1
254
254
255
255
58
1
254
254
255
255
80
1
254
254
255
255
74
1
254
254
255
255
77
1
254
254
255
255
85
1
254
254
255
255
88
1
254
254
255
255
88
1
254
254
255
255
87
1
254
254
255
255
90
1
254
254
255
255
91
1
254
254
255
255
79
1
254
254
255
255
77
1
254
254
255
255
84
1
254
254
255
255
90
1
254
254
255
255
93
1
254
254
255
255
93
1
254
254
255
255
89
1
254
254
255
255
66
1
254
254
255
255
75
1
254
254
255
255
89
1
254
254
255
255
76
1
254
254
255
255
84
1
254
254
255
255
65
1
254
254
255
255
77
1
254
254
255
255
88
1
254
254
255
255
65
1
254
254
255
255
74
1
254
254
255
255
89
1
254
254
255
255
80
1
254
254
255
255
86
1
254
254
255
255
98
1
254
254
255
255
91
1
254
254
255
255
87
1
254
254
255
255
79
1
254
254
255
255
80
1
254
254
255
255
88
1
254
254
255
255
74
1
254
254
255
255
84
1
254
254
255
255
91
1
254
254
255
255
88
1
254
254
255
255
88
1
254
254
255
255
91
1
254
254
255
255
89
1
254
254
255
255
88
1
254
254
255
255
88
1
254
254
255
255
88
1
254
254
255
255
82
1
254
254
255
255
83
1
254
254
255
255
86
1
254
254
255
255
70
1
254
254
255
255
76
1
254
254
255
255
90
1
254
254
255
255
90
1
254
254
255
255
88
1
254
254
255
255
93
1
254
254
255
255
86
1
254
254
255
255
88
1
254
254
255
255
66
1
254
254
255
255
73
1
254
254
255
255
88
1
254
254
255
255
30
1
254
254
255
255
70
1
254
254
255
255
93
1
254
254
255
255
92
1
254
254
255
255
88
1
254
254
255
255
53
1
254
254
255
255
61
1
254
254
255
255
86
1
254
254
255
255
62
1
254
254
255
255
78
1
254
254
255
255
88
1
254
254
255
255
89
1
254
254
255
255
85
1
254
254
255
255
91
1
254
254
255
255
86
1
254
254
255
255
86
1
254
254
255
255
82
1
254
254
255
255
85
1
254
254
255
255
30
1
254
254
255
255
25
1
254
254
255
255
77
1
254
254
255
255
87
1
254
254
255
255
81
1
254
254
255
255
86
1
254
254
255
255
61
1
254
254
255
255
75
1
254
254
255
255
73
1
254
254
255
255
73
1
254
254
255
255
84
1
254
254
255
255
88
1
254
254
255
255
85
1
254
254
255
255
84
1
254
254
255
255
89
1
254
254
255
255
85
1
254
254
255
255
90
1
254
254
255
255
91
1
254
254
255
255
87
1
254
254
255
255
88
1
254
254
255
255
85
1
254
254
255
255
87
1
254
254
255
255
85
1
254
254
255
255
85
1
254
254
255
255
100
1
254
254
255
255
95
1
254
254
255
255
88
1
254
254
255
255
89
1
254
254
255
255
85
1
254
254
255
255
89
1
254
254
255
255
86
1
254
254
255
255
86
1
254
254
255
255
90
1
254
254
255
255
88
1
254
254
255
255
86
1
254
254
255
255
73
1
254
254
255
255
70
1
254
254
255
255
86
1
254
254
255
255
74
1
254
254
255
255
79
1
254
254
255
255
83
1
254
254
255
255
80
1
254
254
255
255
89
1
254
254
255
255
80
1
254
254
255
255
76
1
254
254
255
255
86
1
254
254
255
255
90
1
254
254
255
255
86
1
254
254
255
255
74
1
254
254
255
255
73
1
254
254
255
255
82
1
254
254
255
255
85
1
254
254
255
255
78
1
254
254
255
255
86
1
254
254
255
255
80
1
254
254
255
255
82
1
254
254
255
255
94
1
254
254
11
88
11
255
255
91
1
254
254
255
255
83
1
254
254
255
255
76
1
254
254
255
255
83
1
254
254
255
255
87
1
254
254
255
255
92
1
254
254
255
255
88
1
254
254
255
255
90
1
254
254
255
255
89
1
254
254
255
255
86
1
254
254
255
255
82
1
254
254
255
255
85
1
254
254
255
255
81
1
254
254
255
255
85
1
254
254
255
255
86
1
254
254
255
255
75
1
254
254
255
255
76
1
254
254
255
255
87
1
254
254
255
255
32
1
254
254
255
255
70
1
254
254
255
255
68
1
254
254
255
255
73
1
254
254
255
255
83
1
254
254
255
255
70
1
254
254
255
255
73
1
254
254
255
255
87
1
254
254
255
255
70
1
254
254
255
255
80
1
254
254
255
255
78
1
254
254
255
255
82
1
254
254
255
255
85
1
254
254
255
255
93
1
254
254
255
255
90
1
254
254
255
255
86
1
254
254
255
255
91
1
254
254
255
255
88
1
254
254
255
255
88
1
254
254
255
255
87
1
254
254
255
255
87
1
254
254
255
255
69
1
254
254
255
255
73
1
254
254
255
255
87
1
254
254
255
255
81
1
254
254
255
255
84
1
254
254
255
255
79
1
254
254
255
255
79
1
254
254
255
255
86
1
254
254
255
255
65
1
254
254
255
255
68
1
254
254
255
255
87
1
254
254
255
255
80
1
254
254
255
255
85
1
254
254
255
255
90
1
254
254
255
255
87
1
254
254
255
255
91
1
254
254
255
255
80
1
254
254
255
255
78
1
254
254
255
255
87
1
254
254
255
255
76
1
254
254
255
255
83
1
254
254
255
255
47
1
254
254
255
255
54
1
254
254
255
255
81
1
254
254
255
255
89
1
254
254
255
255
85
1
254
254
255
255
88
1
254
254
255
255
57
1
254
254
255
255
79
1
254
254
255
255
87
1
254
254
255
255
87
1
254
254
255
255
89
1
254
254
255
255
79
1
254
254
255
255
76
1
254
254
255
255
89
1
254
254
255
255
224
0
254
254
255
255
42
1
254
254
255
255
119
1
254
254
255
255
104
1
254
254
255
255
92
1
254
254
255
255
92
1
254
254
255
255
89
1
254
254
255
255
90
1
254
254
255
255
55
1
254
254
255
255
78
1
254
254
255
255
71
1
254
254
255
255
74
1
254
254
255
255
87
1
254
254
255
255
86
1
254
254
255
255
82
1
254
254
255
255
89
1
254
254
255
255
73
1
254
254
255
255
83
1
254
254
255
255
91
1
254
254
255
255
93
1
254
254
255
255
91
1
254
254
255
255
69
1
254
254
255
255
65
1
254
254
255
255
89
1
254
254
255
255
95
1
254
254
255
255
91
1
254
254
255
255
78
1
254
254
255
255
84
1
254
254
255
255
89
1
254
254
255
255
73
1
254
254
255
255
68
1
254
254
255
255
89
1
254
254
255
255
50
1
254
254
255
255
70
1
254
254
255
255
92
1
254
254
255
255
78
1
254
254
255
255
87
1
254
254
255
255
90
1
254
254
255
255
87
1
254
254
255
255
90
1
254
254
255
255
6
1
254
254
255
255
54
1
254
254
255
255
94
1
254
254
255
255
91
1
254
254
255
255
90
1
254
254
255
255
104
1
254
254
255
255
102
1
254
254
255
255
90
1
254
254
255
255
82
1
254
254
255
255
86
1
254
254
255
255
90
1
254
254
255
255
87
1
254
254
255
255
89
1
254
254
255
255
81
1
254
254
255
255
74
1
254
254
255
255
88
1
254
254
255
255
79
1
254
254
255
255
83
1
254
254
255
255
90
1
254
254
255
255
83
1
254
254
255
255
88
1
254
254
255
255
86
1
254
254
255
255
83
1
254
254
255
255
90
1
254
254
255
255
88
1
254
254
255
255
88
1
254
254
255
255
89
1
254
254
255
255
78
1
254
254
255
255
86
1
254
254
255
255
85
1
254
254
255
255
78
1
254
254
255
255
88
1
254
254
255
255
93
1
254
254
255
255
88
1
254
254
255
255
89
1
254
254
255
255
87
1
254
254
255
255
89
1
254
254
255
255
92
1
254
254
48
55
52
51
49
48
255
255
86
1
254
254
255
255
81
1
254
254
11
88
11
255
255
92
1
254
254
255
255
87
1
254
254
255
255
91
1
254
254
255
255
87
1
254
254
255
255
84
1
254
254
255
255
85
1
254
254
255
255
86
1
254
254
255
255
87
1
254
254
255
255
78
1
254
254
255
255
71
1
254
254
255
255
80
1
254
254
255
255
86
1
254
254
255
255
89
1
254
254
255
255
87
1
254
254
255
255
88
1
254
254
255
255
79
1
254
254
255
255
68
1
254
254
255
255
74
1
254
254
255
255
86
1
254
254
255
255
68
1
254
254
255
255
77
1
254
254
255
255
83
1
254
254
255
255
88
1
254
254
255
255
87
1
254
254
255
255
86
1
254
254
255
255
87
1
254
254
255
255
82
1
254
254
255
255
81
1
254
254
255
255
85
1
254
254
255
255
89
1
254
254
255
255
81
1
254
254
255
255
76
1
254
254
255
255
85
1
254
254
255
255
76
1
254
254
255
255
74
1
254
254
255
255
88
1
254
254
255
255
97
1
254
254
255
255
91
1
254
254
255
255
79
1
254
254
255
255
81
1
254
254
255
255
86
1
254
254
255
255
87
1
254
254
255
255
84
1
254
254
255
255
87
1
254
254
255
255
73
1
254
254
255
255
82
1
254
254
255
255
73
1
254
254
255
255
74
1
254
254
255
255
84
1
254
254
255
255
95
1
254
254
255
255
93
1
254
254
255
255
88
1
254
254
255
255
79
1
254
254
255
255
83
1
254
254
255
255
88
1
254
254
255
255
75
1
254
254
255
255
85
1
254
254
255
255
86
1
254
254
255
255
85
1
254
254
255
255
87
1
254
254
255
255
90
1
254
254
255
255
88
1
254
254
255
255
89
1
254
254
255
255
88
1
254
254
255
255
88
1
254
254
255
255
82
1
254
254
255
255
79
1
254
254
255
255
86
1
254
254
255
255
65
1
254
254
255
255
80
1
254
254
255
255
93
1
254
254
255
255
76
1
254
254
255
255
87
1
254
254
255
255
89
1
254
254
255
255
82
1
254
254
255
255
88
1
254
254
255
255
49
1
254
254
255
255
72
1
254
254
255
255
91
1
254
254
255
255
88
1
254
254
255
255
89
1
254
254
255
255
73
1
254
254
255
255
67
1
254
254
255
255
88
1
254
254
255
255
116
1
254
254
255
255
101
1
254
254
255
255
87
1
254
254
255
255
70
1
254
254
255
255
85
1
254
254
255
255
85
1
254
254
255
255
81
1
254
254
255
255
88
1
254
254
255
255
91
1
254
254
255
255
89
1
254
254
255
255
89
1
254
254
255
255
78
1
254
254
255
255
86
1
254
254
255
255
5
1
254
254
255
255
41
1
254
254
255
255
85
1
254
254
255
255
100
1
254
254
255
255
91
1
254
254
255
255
87
1
254
254
255
255
89
1
254
254
255
255
89
1
254
254
255
255
77
1
254
254
255
255
80
1
254
254
255
255
86
1
254
254
255
255
72
1
254
254
255
255
81
1
254
254
255
255
89
1
254
254
255
255
11
1
254
254
255
255
69
1
254
254
255
255
94
1
254
254
255
255
89
1
254
254
255
255
86
1
254
254
255
255
94
1
254
254
255
255
91
1
254
254
255
255
88
1
254
254
255
255
75
1
254
254
255
255
85
1
254
254
255
255
60
1
254
254
255
255
71
1
254
254
255
255
84
1
254
254
255
255
85
1
254
254
255
255
84
1
254
254
255
255
86
1
254
254
255
255
76
1
254
254
255
255
84
1
254
254
255
255
92
1
254
254
255
255
88
1
254
254
255
255
87
1
254
254
255
255
91
1
254
254
255
255
91
1
254
254
255
255
89
1
254
254
255
255
65
1
254
254
255
255
81
1
254
254
255
255
69
1
254
254
255
255
76
1
254
254
255
255
86
1
254
254
255
255
88
1
254
254
255
255
86
1
254
254
255
255
86
1
254
254
255
255
228
0
254
254
255
255
59
1
254
254
255
255
73
1
254
254
255
255
75
1
254
254
255
255
84
1
254
254
255
255
62
1
254
254
255
255
71
1
254
254
255
255
87
1
254
254
255
255
81
1
254
254
255
255
85
1
254
254
255
255
73
1
254
254
255
255
77
1
254
254
255
255
86
1
254
254
255
255
89
1
254
254
255
255
86
1
254
254
255
255
87
1
254
254
255
255
89
1
254
254
255
255
89
1
254
254
255
255
96
1
254
254
255
255
89
1
254
254
255
255
88
1
254
254
255
255
100
1
254
254
255
255
96
1
254
254
11
89
11
255
255
81
1
254
254
255
255
85
1
254
254
255
255
86
1
254
254
255
255
77
1
254
254
255
255
74
1
254
254
255
255
84
1
254
254
255
255
90
1
254
254
255
255
79
1
254
254
255
255
76
1
254
254
255
255
82
1
254
254
255
255
89
1
254
254
255
255
6
1
254
254
255
255
51
1
254
254
255
255
90
1
254
254
255
255
59
1
254
254
255
255
80
1
254
254
255
255
80
1
254
254
255
255
73
1
254
254
255
255
92
1
254
254
255
255
71
1
254
254
255
255
85
1
254
254
255
255
87
1
254
254
255
255
76
1
254
254
255
255
84
1
254
254
255
255
70
1
254
254
255
255
63
1
254
254
255
255
85
1
254
254
255
255
92
1
254
254
255
255
89
1
254
254
255
255
86
1
254
254
255
255
38
1
254
254
255
255
76
1
254
254
255
255
91
1
254
254
255
255
85
1
254
254
255
255
92
1
254
254
255
255
91
1
254
254
255
255
86
1
254
254
255
255
86
1
254
254
255
255
90
1
254
254
255
255
87
1
254
254
255
255
86
1
254
254
255
255
77
1
254
254
255
255
85
1
254
254
255
255
11
1
254
254
255
255
51
1
254
254
255
255
89
1
254
254
255
255
69
1
254
254
255
255
86
1
254
254
255
255
93
1
254
254
255
255
90
1
254
254
255
255
89
1
254
254
255
255
83
1
254
254
255
255
86
1
254
254
255
255
89
1
254
254
255
255
32
1
254
254
255
255
73
1
254
254
255
255
87
1
254
254
255
255
73
1
254
254
255
255
85
1
254
254
255
255
53
1
254
254
255
255
69
1
254
254
255
255
88
1
254
254
255
255
61
1
254
254
255
255
79
1
254
254
255
255
73
1
254
254
255
255
77
1
254
254
255
255
85
1
254
254
255
255
67
1
254
254
255
255
77
1
254
254
255
255
87
1
254
254
255
255
76
1
254
254
255
255
84
1
254
254
255
255
86
1
254
254
255
255
82
1
254
254
255
255
92
1
254
254
255
255
91
1
254
254
255
255
86
1
254
254
255
255
89
1
254
254
255
255
84
1
254
254
255
255
86
1
254
254
255
255
87
1
254
254
255
255
87
1
254
254
255
255
86
1
254
254
255
255
88
1
254
254
255
255
87
1
254
254
255
255
86
1
254
254
255
255
81
1
254
254
255
255
85
1
254
254
255
255
89
1
254
254
255
255
89
1
254
254
255
255
89
1
254
254
255
255
90
1
254
254
255
255
87
1
254
254
255
255
86
1
254
254
255
255
65
1
254
254
255
255
81
1
254
254
255
255
84
1
254
254
255
255
65
1
254
254
255
255
84
1
254
254
255
255
72
1
254
254
255
255
77
1
254
254
255
255
87
1
254
254
255
255
92
1
254
254
255
255
89
1
254
254
255
255
80
1
254
254
255
255
82
1
254
254
255
255
86
1
254
254
255
255
81
1
254
254
255
255
83
1
254
254
255
255
87
1
254
254
255
255
86
1
254
254
255
255
86
1
254
254
255
255
92
1
254
254
255
255
89
1
254
254
255
255
87
1
254
254
255
255
82
1
254
254
255
255
84
1
254
254
255
255
87
1
254
254
255
255
74
1
254
254
255
255
82
1
254
254
255
255
68
1
254
254
255
255
71
1
254
254
255
255
84
1
254
254
255
255
76
1
254
254
255
255
79
1
254
254
255
255
91
1
254
254
255
255
93
1
254
254
255
255
90
1
254
254
255
255
97
1
254
254
255
255
97
1
254
254
255
255
89
1
254
254
255
255
93
1
254
254
255
255
95
1
254
254
255
255
87
1
254
254
255
255
93
1
254
254
255
255
89
1
254
254
255
255
72
1
254
254
255
255
78
1
254
254
255
255
86
1
254
254
255
255
54
1
254
254
255
255
63
1
254
254
255
255
87
1
254
254
255
255
66
1
254
254
255
255
81
1
254
254
255
255
89
1
254
254
255
255
88
1
254
254
255
255
86
1
254
254
255
255
79
1
254
254
255
255
81
1
254
254
255
255
87
1
254
254
255
255
65
1
254
254
255
255
79
1
254
254
48
55
52
51
49
48
255
255
85
1
254
254
255
255
84
1
254
254
11
89
11
255
255
74
1
254
254
255
255
72
1
254
254
255
255
85
1
254
254
255
255
87
1
254
254
255
255
92
1
254
254
255
255
91
1
254
254
255
255
87
1
254
254
255
255
87
1
254
254
255
255
73
1
254
254
255
255
75
1
254
254
255
255
81
1
254
254
255
255
93
1
254
254
255
255
85
1
254
254
255
255
80
1
254
254
255
255
82
1
254
254
255
255
86
1
254
254
255
255
89
1
254
254
255
255
81
1
254
254
255
255
83
1
254
254
255
255
89
1
254
254
255
255
52
1
254
254
255
255
66
1
254
254
255
255
82
1
254
254
255
255
71
1
254
254
255
255
77
1
254
254
255
255
85
1
254
254
255
255
71
1
254
254
255
255
55
1
254
254
255
255
87
1
254
254
255
255
73
1
254
254
255
255
75
1
254
254
255
255
87
1
254
254
255
255
83
1
254
254
255
255
86
1
254
254
255
255
78
1
254
254
255
255
72
1
254
254
255
255
85
1
254
254
255
255
77
1
254
254
255
255
81
1
254
254
255
255
87
1
254
254
255
255
87
1
254
254
255
255
87
1
254
254
255
255
76
1
254
254
255
255
84
1
254
254
255
255
87
1
254
254
255
255
66
1
254
254
255
255
76
1
254
254
255
255
87
1
254
254
255
255
43
1
254
254
255
255
76
1
254
254
255
255
66
1
254
254
255
255
72
1
254
254
255
255
85
1
254
254
255
255
87
1
254
254
255
255
84
1
254
254
255
255
86
1
254
254
255
255
87
1
254
254
255
255
87
1
254
254
255
255
38
1
254
254
255
255
59
1
254
254
255
255
83
1
254
254
255
255
76
1
254
254
255
255
80
1
254
254
255
255
87
1
254
254
255
255
80
1
254
254
255
255
85
1
254
254
255
255
86
1
254
254
255
255
88
1
254
254
255
255
87
1
254
254
255
255
89
1
254
254
255
255
96
1
254
254
255
255
95
1
254
254
255
255
90
1
254
254
255
255
87
1
254
254
255
255
62
1
254
254
255
255
70
1
254
254
255
255
85
1
254
254
255
255
71
1
254
254
255
255
77
1
254
254
255
255
87
1
254
254
255
255
229
0
254
254
255
255
56
1
254
254
255
255
71
1
254
254
255
255
80
1
254
254
255
255
85
1
254
254
255
255
67
1
254
254
255
255
81
1
254
254
255
255
87
1
254
254
255
255
73
1
254
254
255
255
83
1
254
254
255
255
84
1
254
254
255
255
81
1
254
254
255
255
86
1
254
254
255
255
70
1
254
254
255
255
73
1
254
254
255
255
86
1
254
254
255
255
93
1
254
254
255
255
95
1
254
254
255
255
79
1
254
254
255
255
85
1
254
254
255
255
86
1
254
254
255
255
34
1
254
254
255
255
52
1
254
254
255
255
88
1
254
254
255
255
70
1
254
254
255
255
81
1
254
254
255
255
89
1
254
254
255
255
87
1
254
254
255
255
86
1
254
254
255
255
78
1
254
254
255
255
81
1
254
254
255
255
87
1
254
254
255
255
79
1
254
254
255
255
84
1
254
254
255
255
81
1
254
254
255
255
80
1
254
254
255
255
86
1
254
254
255
255
70
1
254
254
255
255
75
1
254
254
255
255
86
1
254
254
255
255
81
1
254
254
255
255
85
1
254
254
255
255
91
1
254
254
255
255
89
1
254
254
255
255
87
1
254
254
255
255
63
1
254
254
255
255
76
1
254
254
255
255
93
1
254
254
255
255
62
1
254
254
255
255
77
1
254
254
255
255
82
1
254
254
255
255
85
1
254
254
255
255
85
1
254
254
255
255
29
1
254
254
255
255
41
1
254
254
255
255
87
1
254
254
255
255
73
1
254
254
255
255
81
1
254
254
255
255
87
1
254
254
255
255
84
1
254
254
255
255
86
1
254
254
255
255
85
1
254
254
255
255
80
1
254
254
255
255
86
1
254
254
255
255
71
1
254
254
255
255
82
1
254
254
255
255
79
1
254
254
255
255
79
1
254
254
255
255
85
1
254
254
255
255
36
1
254
254
255
255
44
1
254
254
255
255
93
1
254
254
255
255
96
1
254
254
255
255
92
1
254
254
255
255
86
1
254
254
255
255
86
1
254
254
255
255
86
1
254
254
255
255
40
1
254
254
255
255
47
1
254
254
255
255
86
1
254
254
255
255
19
1
254
254
255
255
62
1
254
254
255
255
79
1
254
254
255
255
81
1
254
254
255
255
85
1
254
254
11
89
11
255
255
85
1
254
254
255
255
89
1
254
254
255
255
90
1
254
254
255
255
89
1
254
254
255
255
89
1
254
254
255
255
87
1
254
254
255
255
241
0
254
254
255
255
34
1
254
254
255
255
78
1
254
254
255
255
91
1
254
254
255
255
88
1
254
254
255
255
86
1
254
254
255
255
87
1
254
254
255
255
88
1
254
254
255
255
90
1
254
254
255
255
90
1
254
254
255
255
87
1
254
254
255
255
89
1
254
254
255
255
46
1
254
254
255
255
237
0
254
254
255
255
80
1
254
254
255
255
97
1
254
254
255
255
89
1
254
254
255
255
88
1
254
254
255
255
58
1
254
254
255
255
80
1
254
254
255
255
93
1
254
254
255
255
91
1
254
254
255
255
89
1
254
254
255
255
79
1
254
254
255
255
83
1
254
254
255
255
90
1
254
254
255
255
251
0
254
254
255
255
64
1
254
254
255
255
72
1
254
254
255
255
76
1
254
254
255
255
87
1
254
254
255
255
88
1
254
254
255
255
86
1
254
254
255
255
88
1
254
254
255
255
64
1
254
254
255
255
83
1
254
254
255
255
87
1
254
254
255
255
90
1
254
254
255
255
89
1
254
254
255
255
81
1
254
254
255
255
84
1
254
254
255
255
89
1
254
254
255
255
58
1
254
254
255
255
81
1
254
254
255
255
27
1
254
254
255
255
50
1
254
254
255
255
83
1
254
254
255
255
40
1
254
254
255
255
56
1
254
254
255
255
90
1
254
254
255
255
97
1
254
254
255
255
90
1
254
254
255
255
84
1
254
254
255
255
82
1
254
254
255
255
87
1
254
254
255
255
75
1
254
254
255
255
80
1
254
254
255
255
88
1
254
254
255
255
56
1
254
254
255
255
78
1
254
254
255
255
98
1
254
254
255
255
95
1
254
254
255
255
90
1
254
254
255
255
95
1
254
254
255
255
92
1
254
254
255
255
88
1
254
254
255
255
86
1
254
254
255
255
88
1
254
254
255
255
85
1
254
254
255
255
88
1
254
254
255
255
87
1
254
254
255
255
76
1
254
254
255
255
80
1
254
254
255
255
88
1
254
254
255
255
62
1
254
254
255
255
80
1
254
254
255
255
86
1
254
254
255
255
85
1
254
254
255
255
88
1
254
254
255
255
16
1
254
254
255
255
39
1
254
254
255
255
88
1
254
254
255
255
3
1
254
254
255
255
59
1
254
254
255
255
82
1
254
254
255
255
79
1
254
254
255
255
86
1
254
254
255
255
109
1
254
254
255
255
97
1
254
254
255
255
88
1
254
254
255
255
74
1
254
254
255
255
85
1
254
254
255
255
88
1
254
254
255
255
86
1
254
254
255
255
85
1
254
254
255
255
60
1
254
254
255
255
64
1
254
254
255
255
86
1
254
254
255
255
58
1
254
254
255
255
74
1
254
254
255
255
86
1
254
254
255
255
88
1
254
254
255
255
85
1
254
254
255
255
89
1
254
254
255
255
88
1
254
254
255
255
86
1
254
254
255
255
47
1
254
254
255
255
73
1
254
254
255
255
64
1
254
254
255
255
70
1
254
254
255
255
80
1
254
254
255
255
83
1
254
254
255
255
78
1
254
254
255
255
84
1
254
254
255
255
81
1
254
254
255
255
82
1
254
254
255
255
78
1
254
254
255
255
76
1
254
254
255
255
84
1
254
254
255
255
77
1
254
254
255
255
74
1
254
254
255
255
86
1
254
254
255
255
77
1
254
254
255
255
83
1
254
254
255
255
19
1
254
254
255
255
35
1
254
254
255
255
76
1
254
254
255
255
98
1
254
254
255
255
90
1
254
254
255
255
86
1
254
254
255
255
47
1
254
254
255
255
75
1
254
254
255
255
88
1
254
254
255
255
88
1
254
254
255
255
86
1
254
254
255
255
84
1
254
254
255
255
82
1
254
254
255
255
86
1
254
254
255
255
54
1
254
254
255
255
75
1
254
254
255
255
85
1
254
254
255
255
86
1
254
254
255
255
86
1
254
254
255
255
86
1
254
254
255
255
85
1
254
254
255
255
85
1
254
254
48
55
52
51
49
48
255
255
90
1
254
254
255
255
87
1
254
254
11
90
11
255
255
72
1
254
254
255
255
82
1
254
254
255
255
89
1
254
254
255
255
89
1
254
254
255
255
82
1
254
254
255
255
85
1
254
254
255
255
92
1
254
254
255
255
86
1
254
254
255
255
86
1
254
254
255
255
85
1
254
254
255
255
86
1
254
254
255
255
66
1
254
254
255
255
73
1
254
254
255
255
87
1
254
254
255
255
81
1
254
254
255
255
82
1
254
254
255
255
89
1
254
254
255
255
87
1
254
254
255
255
88
1
254
254
255
255
87
1
254
254
255
255
87
1
254
254
255
255
86
1
254
254
255
255
92
1
254
254
255
255
91
1
254
254
255
255
93
1
254
254
255
255
87
1
254
254
255
255
71
1
254
254
255
255
83
1
254
254
255
255
82
1
254
254
255
255
84
1
254
254
255
255
86
1
254
254
255
255
75
1
254
254
255
255
79
1
254
254
255
255
87
1
254
254
255
255
80
1
254
254
255
255
86
1
254
254
255
255
87
1
254
254
255
255
86
1
254
254
255
255
87
1
254
254
255
255
86
1
254
254
255
255
88
1
254
254
255
255
89
1
254
254
255
255
92
1
254
254
255
255
90
1
254
254
255
255
85
1
254
254
255
255
83
1
254
254
255
255
87
1
254
254
255
255
88
1
254
254
255
255
87
1
254
254
255
255
87
1
254
254
255
255
86
1
254
254
255
255
87
1
254
254
255
255
72
1
254
254
255
255
77
1
254
254
255
255
87
1
254
254
255
255
73
1
254
254
255
255
78
1
254
254
255
255
88
1
254
254
255
255
74
1
254
254
255
255
84
1
254
254
255
255
78
1
254
254
255
255
77
1
254
254
255
255
86
1
254
254
255
255
77
1
254
254
255
255
83
1
254
254
255
255
90
1
254
254
255
255
92
1
254
254
255
255
88
1
254
254
255
255
81
1
254
254
255
255
82
1
254
254
255
255
86
1
254
254
255
255
68
1
254
254
255
255
74
1
254
254
255
255
89
1
254
254
255
255
73
1
254
254
255
255
84
1
254
254
255
255
54
1
254
254
255
255
69
1
254
254
255
255
88
1
254
254
255
255
92
1
254
254
255
255
88
1
254
254
255
255
92
1
254
254
255
255
93
1
254
254
255
255
91
1
254
254
255
255
72
1
254
254
255
255
77
1
254
254
255
255
88
1
254
254
255
255
57
1
254
254
255
255
66
1
254
254
255
255
91
1
254
254
255
255
90
1
254
254
255
255
90
1
254
254
255
255
85
1
254
254
255
255
83
1
254
254
255
255
90
1
254
254
255
255
90
1
254
254
255
255
90
1
254
254
255
255
91
1
254
254
255
255
51
1
254
254
255
255
78
1
254
254
255
255
71
1
254
254
255
255
76
1
254
254
255
255
88
1
254
254
255
255
100
1
254
254
255
255
95
1
254
254
255
255
90
1
254
254
255
255
86
1
254
254
255
255
89
1
254
254
255
255
74
1
254
254
255
255
72
1
254
254
255
255
88
1
254
254
255
255
94
1
254
254
255
255
91
1
254
254
255
255
89
1
254
254
255
255
91
1
254
254
255
255
90
1
254
254
255
255
87
1
254
254
255
255
87
1
254
254
255
255
91
1
254
254
255
255
90
1
254
254
255
255
89
1
254
254
255
255
90
1
254
254
255
255
68
1
254
254
255
255
82
1
254
254
255
255
219
0
254
254
255
255
248
0
254
254
255
255
73
1
254
254
255
255
100
1
254
254
255
255
91
1
254
254
255
255
88
1
254
254
255
255
48
1
254
254
255
255
74
1
254
254
255
255
53
1
254
254
255
255
65
1
254
254
255
255
85
1
254
254
255
255
89
1
254
254
255
255
86
1
254
254
255
255
89
1
254
254
255
255
58
1
254
254
255
255
79
1
254
254
255
255
37
1
254
254
255
255
49
1
254
254
255
255
81
1
254
254
255
255
91
1
254
254
255
255
87
1
254
254
255
255
88
1
254
254
255
255
87
1
254
254
255
255
89
1
254
254
255
255
89
1
254
254
255
255
91
1
254
254
255
255
89
1
254
254
255
255
95
1
254
254
255
255
94
1
254
254
255
255
89
1
254
254
255
255
12
1
254
254
255
255
61
1
254
254
255
255
75
1
254
254
255
255
72
1
254
254
255
255
85
1
254
254
255
255
94
1
254
254
255
255
92
1
254
254
255
255
89
1
254
254
255
255
28
1
254
254
255
255
66
1
254
254
11
90
11
255
255
81
1
254
254
255
255
85
1
254
254
255
255
105
1
254
254
255
255
102
1
254
254
255
255
91
1
254
254
255
255
87
1
254
254
255
255
78
1
254
254
255
255
77
1
254
254
255
255
90
1
254
254
255
255
91
1
254
254
255
255
79
1
254
254
255
255
74
1
254
254
255
255
83
1
254
254
255
255
70
1
254
254
255
255
72
1
254
254
255
255
84
1
254
254
255
255
54
1
254
254
255
255
67
1
254
254
255
255
88
1
254
254
255
255
92
1
254
254
255
255
86
1
254
254
255
255
64
1
254
254
255
255
71
1
254
254
255
255
84
1
254
254
255
255
69
1
254
254
255
255
74
1
254
254
255
255
89
1
254
254
255
255
85
1
254
254
255
255
86
1
254
254
255
255
72
1
254
254
255
255
77
1
254
254
255
255
86
1
254
254
255
255
62
1
254
254
255
255
71
1
254
254
255
255
87
1
254
254
255
255
84
1
254
254
255
255
85
1
254
254
255
255
63
1
254
254
255
255
76
1
254
254
255
255
85
1
254
254
255
255
75
1
254
254
255
255
77
1
254
254
255
255
87
1
254
254
255
255
56
1
254
254
255
255
77
1
254
254
255
255
90
1
254
254
255
255
88
1
254
254
255
255
86
1
254
254
255
255
49
1
254
254
255
255
62
1
254
254
255
255
87
1
254
254
255
255
85
1
254
254
255
255
87
1
254
254
255
255
60
1
254
254
255
255
58
1
254
254
255
255
87
1
254
254
255
255
67
1
254
254
255
255
74
1
254
254
255
255
91
1
254
254
255
255
76
1
254
254
255
255
83
1
254
254
255
255
85
1
254
254
255
255
85
1
254
254
255
255
87
1
254
254
255
255
71
1
254
254
255
255
72
1
254
254
255
255
86
1
254
254
255
255
77
1
254
254
255
255
83
1
254
254
255
255
83
1
254
254
255
255
81
1
254
254
255
255
86
1
254
254
255
255
83
1
254
254
255
255
84
1
254
254
255
255
87
1
254
254
255
255
47
1
254
254
255
255
76
1
254
254
255
255
97
1
254
254
255
255
92
1
254
254
255
255
89
1
254
254
255
255
80
1
254
254
255
255
83
1
254
254
255
255
89
1
254
254
255
255
86
1
254
254
255
255
88
1
254
254
255
255
74
1
254
254
255
255
78
1
254
254
255
255
88
1
254
254
255
255
70
1
254
254
255
255
74
1
254
254
255
255
89
1
254
254
255
255
192
0
254
254
255
255
39
1
254
254
255
255
71
1
254
254
255
255
78
1
254
254
255
255
85
1
254
254
255
255
95
1
254
254
255
255
92
1
254
254
255
255
89
1
254
254
255
255
89
1
254
254
255
255
89
1
254
254
255
255
89
1
254
254
255
255
85
1
254
254
255
255
89
1
254
254
255
255
69
1
254
254
255
255
72
1
254
254
255
255
88
1
254
254
255
255
76
1
254
254
255
255
84
1
254
254
255
255
32
1
254
254
255
255
46
1
254
254
255
255
82
1
254
254
255
255
91
1
254
254
255
255
88
1
254
254
255
255
90
1
254
254
255
255
88
1
254
254
255
255
87
1
254
254
255
255
89
1
254
254
255
255
86
1
254
254
255
255
86
1
254
254
255
255
83
1
254
254
255
255
83
1
254
254
255
255
86
1
254
254
255
255
80
1
254
254
255
255
83
1
254
254
255
255
73
1
254
254
255
255
75
1
254
254
255
255
84
1
254
254
255
255
240
0
254
254
255
255
1
1
254
254
255
255
87
1
254
254
255
255
76
1
254
254
255
255
80
1
254
254
255
255
71
1
254
254
255
255
74
1
254
254
255
255
85
1
254
254
255
255
76
1
254
254
255
255
76
1
254
254
255
255
86
1
254
254
255
255
1
1
254
254
255
255
56
1
254
254
255
255
58
1
254
254
255
255
59
1
254
254
255
255
81
1
254
254
255
255
88
1
254
254
255
255
86
1
254
254
255
255
88
1
254
254
255
255
86
1
254
254
255
255
87
1
254
254
255
255
82
1
254
254
255
255
83
1
254
254
255
255
86
1
254
254
255
255
66
1
254
254
48
55
52
51
49
48
255
255
83
1
254
254
255
255
90
1
254
254
11
90
11
255
255
89
1
254
254
255
255
87
1
254
254
255
255
82
1
254
254
255
255
69
1
254
254
255
255
76
1
254
254
255
255
85
1
254
254
255
255
43
1
254
254
255
255
61
1
254
254
255
255
81
1
254
254
255
255
89
1
254
254
255
255
71
1
254
254
255
255
75
1
254
254
255
255
82
1
254
254
255
255
90
1
254
254
255
255
81
1
254
254
255
255
82
1
254
254
255
255
83
1
254
254
255
255
87
1
254
254
255
255
87
1
254
254
255
255
86
1
254
254
255
255
90
1
254
254
255
255
88
1
254
254
255
255
97
1
254
254
255
255
94
1
254
254
255
255
87
1
254
254
255
255
87
1
254
254
255
255
87
1
254
254
255
255
87
1
254
254
255
255
73
1
254
254
255
255
83
1
254
254
255
255
91
1
254
254
255
255
85
1
254
254
255
255
92
1
254
254
255
255
90
1
254
254
255
255
91
1
254
254
255
255
86
1
254
254
255
255
70
1
254
254
255
255
83
1
254
254
255
255
89
1
254
254
255
255
88
1
254
254
255
255
86
1
254
254
255
255
86
1
254
254
255
255
85
1
254
254
255
255
87
1
254
254
255
255
14
1
254
254
255
255
72
1
254
254
255
255
67
1
254
254
255
255
69
1
254
254
255
255
90
1
254
254
255
255
65
1
254
254
255
255
72
1
254
254
255
255
87
1
254
254
255
255
49
1
254
254
255
255
75
1
254
254
255
255
66
1
254
254
255
255
74
1
254
254
255
255
84
1
254
254
255
255
74
1
254
254
255
255
84
1
254
254
255
255
93
1
254
254
255
255
25
1
254
254
255
255
68
1
254
254
255
255
80
1
254
254
255
255
87
1
254
254
255
255
86
1
254
254
255
255
88
1
254
254
255
255
86
1
254
254
255
255
86
1
254
254
255
255
64
1
254
254
255
255
80
1
254
254
255
255
58
1
254
254
255
255
66
1
254
254
255
255
89
1
254
254
255
255
79
1
254
254
255
255
80
1
254
254
255
255
86
1
254
254
255
255
84
1
254
254
255
255
86
1
254
254
255
255
253
0
254
254
255
255
27
1
254
254
255
255
78
1
254
254
255
255
95
1
254
254
255
255
88
1
254
254
255
255
86
1
254
254
255
255
101
1
254
254
255
255
91
1
254
254
255
255
84
1
254
254
255
255
82
1
254
254
255
255
87
1
254
254
255
255
81
1
254
254
255
255
83
1
254
254
255
255
87
1
254
254
255
255
248
0
254
254
255
255
58
1
254
254
255
255
93
1
254
254
255
255
91
1
254
254
255
255
87
1
254
254
255
255
88
1
254
254
255
255
88
1
254
254
255
255
87
1
254
254
255
255
96
1
254
254
255
255
91
1
254
254
255
255
93
1
254
254
255
255
88
1
254
254
255
255
87
1
254
254
255
255
41
1
254
254
255
255
55
1
254
254
255
255
87
1
254
254
255
255
95
1
254
254
255
255
88
1
254
254
255
255
17
1
254
254
255
255
36
1
254
254
255
255
78
1
254
254
255
255
99
1
254
254
255
255
94
1
254
254
255
255
89
1
254
254
255
255
58
1
254
254
255
255
77
1
254
254
255
255
83
1
254
254
255
255
83
1
254
254
255
255
86
1
254
254
255
255
69
1
254
254
255
255
74
1
254
254
255
255
87
1
254
254
255
255
56
1
254
254
255
255
77
1
254
254
255
255
85
1
254
254
255
255
84
1
254
254
255
255
89
1
254
254
255
255
70
1
254
254
255
255
73
1
254
254
255
255
91
1
254
254
255
255
83
1
254
254
255
255
85
1
254
254
255
255
71
1
254
254
255
255
72
1
254
254
255
255
84
1
254
254
255
255
107
1
254
254
255
255
101
1
254
254
255
255
87
1
254
254
255
255
82
1
254
254
255
255
85
1
254
254
255
255
64
1
254
254
255
255
66
1
254
254
255
255
83
1
254
254
255
255
84
1
254
254
255
255
84
1
254
254
255
255
87
1
254
254
255
255
67
1
254
254
255
255
80
1
254
254
255
255
94
1
254
254
255
255
89
1
254
254
255
255
88
1
254
254
255
255
85
1
254
254
255
255
84
1
254
254
255
255
87
1
254
254
255
255
94
1
254
254
255
255
90
1
254
254
255
255
83
1
254
254
255
255
86
1
254
254
255
255
86
1
254
254
255
255
65
1
254
254
255
255
68
1
254
254
255
255
87
1
254
254
255
255
78
1
254
254
11
90
11
255
255
53
1
254
254
255
255
54
1
254
254
255
255
69
1
254
254
255
255
85
1
254
254
255
255
91
1
254
254
255
255
90
1
254
254
255
255
87
1
254
254
255
255
70
1
254
254
255
255
80
1
254
254
255
255
87
1
254
254
255
255
86
1
254
254
255
255
84
1
254
254
255
255
84
1
254
254
255
255
88
1
254
254
255
255
70
1
254
254
255
255
69
1
254
254
255
255
88
1
254
254
255
255
88
1
254
254
255
255
84
1
254
254
255
255
86
1
254
254
255
255
84
1
254
254
255
255
84
1
254
254
255
255
62
1
254
254
255
255
69
1
254
254
255
255
84
1
254
254
255
255
30
1
254
254
255
255
55
1
254
254
255
255
88
1
254
254
255
255
71
1
254
254
255
255
85
1
254
254
255
255
95
1
254
254
255
255
89
1
254
254
255
255
86
1
254
254
255
255
81
1
254
254
255
255
83
1
254
254
255
255
87
1
254
254
255
255
79
1
254
254
255
255
85
1
254
254
255
255
69
1
254
254
255
255
76
1
254
254
255
255
85
1
254
254
255
255
76
1
254
254
255
255
80
1
254
254
255
255
85
1
254
254
255
255
69
1
254
254
255
255
90
1
254
254
255
255
93
1
254
254
255
255
91
1
254
254
255
255
87
1
254
254
255
255
89
1
254
254
255
255
86
1
254
254
255
255
85
1
254
254
255
255
62
1
254
254
255
255
79
1
254
254
255
255
48
1
254
254
255
255
61
1
254
254
255
255
83
1
254
254
255
255
80
1
254
254
255
255
89
1
254
254
255
255
89
1
254
254
255
255
59
1
254
254
255
255
78
1
254
254
255
255
83
1
254
254
255
255
82
1
254
254
255
255
84
1
254
254
255
255
85
1
254
254
255
255
85
1
254
254
255
255
86
1
254
254
255
255
88
1
254
254
255
255
87
1
254
254
255
255
85
1
254
254
255
255
85
1
254
254
255
255
93
1
254
254
255
255
85
1
254
254
255
255
84
1
254
254
255
255
87
1
254
254
255
255
80
1
254
254
255
255
84
1
254
254
255
255
88
1
254
254
255
255
86
1
254
254
255
255
92
1
254
254
255
255
70
1
254
254
255
255
75
1
254
254
255
255
85
1
254
254
255
255
59
1
254
254
255
255
77
1
254
254
255
255
74
1
254
254
255
255
82
1
254
254
255
255
85
1
254
254
255
255
64
1
254
254
255
255
72
1
254
254
255
255
85
1
254
254
255
255
88
1
254
254
255
255
87
1
254
254
255
255
107
1
254
254
255
255
98
1
254
254
255
255
88
1
254
254
255
255
81
1
254
254
255
255
89
1
254
254
255
255
95
1
254
254
255
255
95
1
254
254
255
255
88
1
254
254
255
255
75
1
254
254
255
255
82
1
254
254
255
255
86
1
254
254
255
255
48
1
254
254
255
255
62
1
254
254
255
255
86
1
254
254
255
255
79
1
254
254
255
255
84
1
254
254
255
255
83
1
254
254
255
255
84
1
254
254
255
255
91
1
254
254
255
255
102
1
254
254
255
255
93
1
254
254
255
255
86
1
254
254
255
255
85
1
254
254
255
255
87
1
254
254
255
255
83
1
254
254
255
255
83
1
254
254
255
255
86
1
254
254
255
255
70
1
254
254
255
255
77
1
254
254
255
255
86
1
254
254
255
255
44
1
254
254
255
255
73
1
254
254
255
255
79
1
254
254
255
255
81
1
254
254
255
255
85
1
254
254
255
255
85
1
254
254
255
255
84
1
254
254
255
255
86
1
254
254
255
255
89
1
254
254
255
255
87
1
254
254
255
255
88
1
254
254
255
255
88
1
254
254
255
255
86
1
254
254
255
255
78
1
254
254
255
255
78
1
254
254
255
255
87
1
254
254
255
255
91
1
254
254
255
255
92
1
254
254
255
255
88
1
254
254
255
255
88
1
254
254
255
255
87
1
254
254
255
255
74
1
254
254
255
255
78
1
254
254
255
255
87
1
254
254
255
255
44
1
254
254
255
255
73
1
254
254
48
55
52
51
49
48
255
255
72
1
254
254
255
255
86
1
254
254
255
255
89
1
254
254
255
255
73
1
254
254
11
90
11
255
255
84
1
254
254
255
255
81
1
254
254
255
255
78
1
254
254
255
255
83
1
254
254
255
255
88
1
254
254
255
255
84
1
254
254
255
255
77
1
254
254
255
255
82
1
254
254
255
255
89
1
254
254
255
255
85
1
254
254
255
255
73
1
254
254
255
255
79
1
254
254
255
255
85
1
254
254
255
255
65
1
254
254
255
255
71
1
254
254
255
255
83
1
254
254
255
255
86
1
254
254
255
255
85
1
254
254
255
255
85
1
254
254
255
255
92
1
254
254
255
255
90
1
254
254
255
255
86
1
254
254
255
255
84
1
254
254
255
255
86
1
254
254
255
255
89
1
254
254
255
255
87
1
254
254
255
255
84
1
254
254
255
255
85
1
254
254
255
255
89
1
254
254
255
255
89
1
254
254
255
255
83
1
254
254
255
255
86
1
254
254
255
255
81
1
254
254
255
255
81
1
254
254
255
255
87
1
254
254
255
255
84
1
254
254
255
255
88
1
254
254
255
255
89
1
254
254
255
255
86
1
254
254
255
255
87
1
254
254
255
255
77
1
254
254
255
255
80
1
254
254
255
255
87
1
254
254
255
255
232
0
254
254
255
255
50
1
254
254
255
255
97
1
254
254
255
255
89
1
254
254
255
255
87
1
254
254
255
255
82
1
254
254
255
255
82
1
254
254
255
255
88
1
254
254
255
255
85
1
254
254
255
255
86
1
254
254
255
255
65
1
254
254
255
255
69
1
254
254
255
255
84
1
254
254
255
255
89
1
254
254
255
255
86
1
254
254
255
255
87
1
254
254
255
255
89
1
254
254
255
255
88
1
254
254
255
255
79
1
254
254
255
255
81
1
254
254
255
255
86
1
254
254
255
255
41
1
254
254
255
255
53
1
254
254
255
255
88
1
254
254
255
255
78
1
254
254
255
255
83
1
254
254
255
255
78
1
254
254
255
255
81
1
254
254
255
255
86
1
254
254
255
255
39
1
254
254
255
255
51
1
254
254
255
255
87
1
254
254
255
255
40
1
254
254
255
255
70
1
254
254
255
255
94
1
254
254
255
255
88
1
254
254
255
255
87
1
254
254
255
255
81
1
254
254
255
255
82
1
254
254
255
255
87
1
254
254
255
255
42
1
254
254
255
255
72
1
254
254
255
255
62
1
254
254
255
255
61
1
254
254
255
255
83
1
254
254
255
255
89
1
254
254
255
255
91
1
254
254
255
255
91
1
254
254
255
255
59
1
254
254
255
255
80
1
254
254
255
255
87
1
254
254
255
255
85
1
254
254
255
255
90
1
254
254
255
255
85
1
254
254
255
255
84
1
254
254
255
255
89
1
254
254
255
255
60
1
254
254
255
255
79
1
254
254
255
255
60
1
254
254
255
255
66
1
254
254
255
255
85
1
254
254
255
255
74
1
254
254
255
255
75
1
254
254
255
255
87
1
254
254
255
255
67
1
254
254
255
255
82
1
254
254
255
255
62
1
254
254
255
255
71
1
254
254
255
255
85
1
254
254
255
255
79
1
254
254
255
255
79
1
254
254
255
255
88
1
254
254
255
255
85
1
254
254
255
255
87
1
254
254
255
255
93
1
254
254
255
255
96
1
254
254
255
255
90
1
254
254
255
255
84
1
254
254
255
255
84
1
254
254
255
255
89
1
254
254
255
255
92
1
254
254
255
255
89
1
254
254
255
255
37
1
254
254
255
255
51
1
254
254
255
255
80
1
254
254
255
255
93
1
254
254
255
255
88
1
254
254
255
255
86
1
254
254
255
255
89
1
254
254
255
255
87
1
254
254
255
255
85
1
254
254
255
255
90
1
254
254
255
255
88
1
254
254
255
255
71
1
254
254
255
255
73
1
254
254
255
255
86
1
254
254
255
255
199
0
254
254
255
255
35
1
254
254
255
255
95
1
254
254
255
255
89
1
254
254
255
255
86
1
254
254
255
255
71
1
254
254
255
255
71
1
254
254
255
255
88
1
254
254
255
255
82
1
254
254
255
255
84
1
254
254
255
255
70
1
254
254
255
255
69
1
254
254
255
255
83
1
254
254
255
255
72
1
254
254
255
255
70
1
254
254
255
255
86
1
254
254
255
255
81
1
254
254
255
255
84
1
254
254
255
255
17
1
254
254
255
255
30
1
254
254
255
255
76
1
254
254
255
255
96
1
254
254
255
255
87
1
254
254
11
90
11
255
255
49
1
254
254
255
255
72
1
254
254
255
255
88
1
254
254
255
255
91
1
254
254
255
255
87
1
254
254
255
255
86
1
254
254
255
255
87
1
254
254
255
255
89
1
254
254
255
255
85
1
254
254
255
255
83
1
254
254
255
255
85
1
254
254
255
255
77
1
254
254
255
255
81
1
254
254
255
255
86
1
254
254
255
255
90
1
254
254
255
255
88
1
254
254
255
255
71
1
254
254
255
255
49
1
254
254
255
255
82
1
254
254
255
255
76
1
254
254
255
255
78
1
254
254
255
255
87
1
254
254
255
255
90
1
254
254
255
255
88
1
254
254
255
255
90
1
254
254
255
255
87
1
254
254
255
255
93
1
254
254
255
255
97
1
254
254
255
255
89
1
254
254
255
255
88
1
254
254
255
255
69
1
254
254
255
255
82
1
254
254
255
255
84
1
254
254
255
255
84
1
254
254
255
255
85
1
254
254
255
255
85
1
254
254
255
255
85
1
254
254
255
255
86
1
254
254
255
255
66
1
254
254
255
255
86
1
254
254
255
255
67
1
254
254
255
255
254
0
254
254
255
255
84
1
254
254
255
255
83
1
254
254
255
255
81
1
254
254
255
255
86
1
254
254
255
255
79
1
254
254
255
255
84
1
254
254
255
255
84
1
254
254
255
255
81
1
254
254
255
255
86
1
254
254
255
255
65
1
254
254
255
255
74
1
254
254
255
255
87
1
254
254
255
255
84
1
254
254
255
255
90
1
254
254
255
255
71
1
254
254
255
255
76
1
254
254
255
255
85
1
254
254
255
255
101
1
254
254
255
255
93
1
254
254
255
255
86
1
254
254
255
255
72
1
254
254
255
255
83
1
254
254
255
255
85
1
254
254
255
255
88
1
254
254
255
255
86
1
254
254
255
255
84
1
254
254
255
255
84
1
254
254
255
255
92
1
254
254
255
255
78
1
254
254
255
255
84
1
254
254
255
255
76
1
254
254
255
255
82
1
254
254
255
255
87
1
254
254
255
255
43
1
254
254
255
255
58
1
254
254
255
255
90
1
254
254
255
255
57
1
254
254
255
255
77
1
254
254
255
255
78
1
254
254
255
255
83
1
254
254
255
255
90
1
254
254
255
255
91
1
254
254
255
255
88
1
254
254
255
255
86
1
254
254
255
255
52
1
254
254
255
255
76
1
254
254
255
255
28
1
254
254
255
255
48
1
254
254
255
255
81
1
254
254
255
255
61
1
254
254
255
255
68
1
254
254
255
255
87
1
254
254
255
255
87
1
254
254
255
255
89
1
254
254
255
255
69
1
254
254
255
255
78
1
254
254
255
255
85
1
254
254
255
255
79
1
254
254
255
255
82
1
254
254
255
255
87
1
254
254
255
255
82
1
254
254
255
255
85
1
254
254
255
255
79
1
254
254
255
255
78
1
254
254
255
255
85
1
254
254
255
255
64
1
254
254
255
255
68
1
254
254
255
255
86
1
254
254
255
255
96
1
254
254
255
255
88
1
254
254
255
255
63
1
254
254
255
255
71
1
254
254
255
255
84
1
254
254
255
255
63
1
254
254
255
255
68
1
254
254
255
255
87
1
254
254
255
255
68
1
254
254
255
255
79
1
254
254
255
255
75
1
254
254
255
255
77
1
254
254
255
255
88
1
254
254
255
255
92
1
254
254
255
255
87
1
254
254
255
255
87
1
254
254
255
255
88
1
254
254
255
255
87
1
254
254
255
255
58
1
254
254
255
255
69
1
254
254
255
255
83
1
254
254
255
255
81
1
254
254
255
255
82
1
254
254
255
255
87
1
254
254
255
255
79
1
254
254
255
255
87
1
254
254
255
255
57
1
254
254
255
255
63
1
254
254
255
255
85
1
254
254
255
255
60
1
254
254
255
255
66
1
254
254
255
255
90
1
254
254
255
255
77
1
254
254
255
255
85
1
254
254
255
255
93
1
254
254
255
255
88
1
254
254
255
255
87
1
254
254
255
255
90
1
254
254
255
255
88
1
254
254
255
255
87
1
254
254
255
255
68
1
254
254
48
55
52
51
49
48
255
255
85
1
254
254
255
255
59
1
254
254
255
255
60
1
254
254
11
90
11
255
255
67
1
254
254
255
255
75
1
254
254
255
255
89
1
254
254
255
255
55
1
254
254
255
255
69
1
254
254
255
255
83
1
254
254
255
255
84
1
254
254
255
255
87
1
254
254
255
255
88
1
254
254
255
255
50
1
254
254
255
255
64
1
254
254
255
255
81
1
254
254
255
255
42
1
254
254
255
255
56
1
254
254
255
255
82
1
254
254
255
255
91
1
254
254
255
255
76
1
254
254
255
255
78
1
254
254
255
255
80
1
254
254
255
255
87
1
254
254
255
255
40
1
254
254
255
255
34
1
254
254
255
255
68
1
254
254
255
255
89
1
254
254
255
255
84
1
254
254
255
255
74
1
254
254
255
255
85
1
254
254
255
255
86
1
254
254
255
255
90
1
254
254
255
255
85
1
254
254
255
255
85
1
254
254
255
255
84
1
254
254
255
255
87
1
254
254
255
255
90
1
254
254
255
255
92
1
254
254
255
255
88
1
254
254
255
255
86
1
254
254
255
255
38
1
254
254
255
255
61
1
254
254
255
255
88
1
254
254
255
255
64
1
254
254
255
255
81
1
254
254
255
255
60
1
254
254
255
255
69
1
254
254
255
255
85
1
254
254
255
255
53
1
254
254
255
255
66
1
254
254
255
255
91
1
254
254
255
255
85
1
254
254
255
255
86
1
254
254
255
255
90
1
254
254
255
255
91
1
254
254
255
255
87
1
254
254
255
255
48
1
254
254
255
255
66
1
254
254
255
255
88
1
254
254
255
255
116
1
254
254
255
255
93
1
254
254
255
255
76
1
254
254
255
255
62
1
254
254
255
255
85
1
254
254
255
255
79
1
254
254
255
255
82
1
254
254
255
255
91
1
254
254
255
255
82
1
254
254
255
255
89
1
254
254
255
255
89
1
254
254
255
255
87
1
254
254
255
255
87
1
254
254
255
255
75
1
254
254
255
255
81
1
254
254
255
255
87
1
254
254
255
255
67
1
254
254
255
255
82
1
254
254
255
255
82
1
254
254
255
255
78
1
254
254
255
255
88
1
254
254
255
255
81
1
254
254
255
255
83
1
254
254
255
255
87
1
254
254
255
255
45
1
254
254
255
255
76
1
254
254
255
255
40
1
254
254
255
255
220
0
254
254
255
255
76
1
254
254
255
255
102
1
254
254
255
255
87
1
254
254
255
255
85
1
254
254
255
255
83
1
254
254
255
255
86
1
254
254
255
255
82
1
254
254
255
255
77
1
254
254
255
255
85
1
254
254
255
255
79
1
254
254
255
255
82
1
254
254
255
255
85
1
254
254
255
255
55
1
254
254
255
255
78
1
254
254
255
255
88
1
254
254
255
255
85
1
254
254
255
255
86
1
254
254
255
255
82
1
254
254
255
255
82
1
254
254
255
255
93
1
254
254
255
255
94
1
254
254
255
255
89
1
254
254
255
255
76
1
254
254
255
255
79
1
254
254
255
255
86
1
254
254
255
255
63
1
254
254
255
255
73
1
254
254
255
255
87
1
254
254
255
255
79
1
254
254
255
255
84
1
254
254
255
255
80
1
254
254
255
255
84
1
254
254
255
255
86
1
254
254
255
255
37
1
254
254
255
255
61
1
254
254
255
255
88
1
254
254
255
255
36
1
254
254
255
255
73
1
254
254
255
255
84
1
254
254
255
255
65
1
254
254
255
255
84
1
254
254
255
255
90
1
254
254
255
255
88
1
254
254
255
255
86
1
254
254
255
255
79
1
254
254
255
255
84
1
254
254
255
255
30
1
254
254
255
255
34
1
254
254
255
255
88
1
254
254
255
255
93
1
254
254
255
255
86
1
254
254
255
255
87
1
254
254
255
255
62
1
254
254
255
255
80
1
254
254
255
255
64
1
254
254
255
255
72
1
254
254
255
255
84
1
254
254
255
255
93
1
254
254
255
255
88
1
254
254
255
255
93
1
254
254
255
255
32
1
254
254
255
255
70
1
254
254
255
255
84
1
254
254
255
255
82
1
254
254
255
255
86
1
254
254
255
255
88
1
254
254
255
255
85
1
254
254
255
255
86
1
254
254
255
255
83
1
254
254
255
255
86
1
254
254
255
255
84
1
254
254
255
255
88
1
254
254
255
255
86
1
254
254
255
255
75
1
254
254
255
255
78
1
254
254
255
255
87
1
254
254
255
255
56
1
254
254
255
255
82
1
254
254
255
255
66
1
254
254
255
255
71
1
254
254
255
255
85
1
254
254
11
91
11
255
255
75
1
254
254
255
255
88
1
254
254
255
255
96
1
254
254
255
255
99
1
254
254
255
255
92
1
254
254
255
255
88
1
254
254
255
255
91
1
254
254
255
255
84
1
254
254
255
255
86
1
254
254
255
255
87
1
254
254
255
255
85
1
254
254
255
255
87
1
254
254
255
255
90
1
254
254
255
255
75
1
254
254
255
255
83
1
254
254
255
255
91
1
254
254
255
255
92
1
254
254
255
255
91
1
254
254
255
255
90
1
254
254
255
255
86
1
254
254
255
255
89
1
254
254
255
255
62
1
254
254
255
255
77
1
254
254
255
255
39
1
254
254
255
255
48
1
254
254
255
255
80
1
254
254
255
255
76
1
254
254
255
255
71
1
254
254
255
255
87
1
254
254
255
255
91
1
254
254
255
255
90
1
254
254
255
255
90
1
254
254
255
255
59
1
254
254
255
255
84
1
254
254
255
255
86
1
254
254
255
255
82
1
254
254
255
255
89
1
254
254
255
255
84
1
254
254
255
255
86
1
254
254
255
255
90
1
254
254
255
255
251
0
254
254
255
255
70
1
254
254
255
255
97
1
254
254
255
255
86
1
254
254
255
255
89
1
254
254
255
255
73
1
254
254
255
255
83
1
254
254
255
255
86
1
254
254
255
255
85
1
254
254
255
255
88
1
254
254
255
255
50
1
254
254
255
255
38
1
254
254
255
255
87
1
254
254
255
255
79
1
254
254
255
255
84
1
254
254
255
255
89
1
254
254
255
255
95
1
254
254
255
255
90
1
254
254
255
255
79
1
254
254
255
255
72
1
254
254
255
255
88
1
254
254
255
255
92
1
254
254
255
255
90
1
254
254
255
255
89
1
254
254
255
255
80
1
254
254
255
255
87
1
254
254
255
255
84
1
254
254
255
255
75
1
254
254
255
255
88
1
254
254
255
255
94
1
254
254
255
255
91
1
254
254
255
255
88
1
254
254
255
255
76
1
254
254
255
255
86
1
254
254
255
255
82
1
254
254
255
255
76
1
254
254
255
255
88
1
254
254
255
255
85
1
254
254
255
255
86
1
254
254
255
255
88
1
254
254
255
255
73
1
254
254
255
255
85
1
254
254
255
255
84
1
254
254
255
255
77
1
254
254
255
255
87
1
254
254
255
255
34
1
254
254
255
255
62
1
254
254
255
255
90
1
254
254
255
255
91
1
254
254
255
255
89
1
254
254
255
255
90
1
254
254
255
255
88
1
254
254
255
255
87
1
254
254
255
255
92
1
254
254
255
255
88
1
254
254
255
255
87
1
254
254
255
255
24
1
254
254
255
255
74
1
254
254
255
255
93
1
254
254
255
255
88
1
254
254
255
255
88
1
254
254
255
255
74
1
254
254
255
255
80
1
254
254
255
255
88
1
254
254
255
255
83
1
254
254
255
255
87
1
254
254
255
255
64
1
254
254
255
255
74
1
254
254
255
255
87
1
254
254
255
255
72
1
254
254
255
255
78
1
254
254
255
255
85
1
254
254
255
255
52
1
254
254
255
255
77
1
254
254
255
255
83
1
254
254
255
255
72
1
254
254
255
255
84
1
254
254
255
255
13
1
254
254
255
255
52
1
254
254
255
255
89
1
254
254
255
255
92
1
254
254
255
255
86
1
254
254
255
255
30
1
254
254
255
255
246
0
254
254
255
255
78
1
254
254
255
255
44
1
254
254
255
255
60
1
254
254
255
255
85
1
254
254
255
255
47
1
254
254
255
255
81
1
254
254
255
255
72
1
254
254
255
255
52
1
254
254
255
255
82
1
254
254
255
255
32
1
254
254
255
255
58
1
254
254
255
255
88
1
254
254
255
255
60
1
254
254
255
255
80
1
254
254
255
255
76
1
254
254
255
255
59
1
254
254
255
255
83
1
254
254
255
255
66
1
254
254
255
255
76
1
254
254
255
255
90
1
254
254
255
255
78
1
254
254
255
255
84
1
254
254
255
255
80
1
254
254
255
255
73
1
254
254
255
255
85
1
254
254
255
255
71
1
254
254
255
255
79
1
254
254
48
55
52
51
49
48
255
255
84
1
254
254
255
255
86
1
254
254
255
255
86
1
254
254
11
91
11
255
255
48
1
254
254
255
255
69
1
254
254
255
255
88
1
254
254
255
255
84
1
254
254
255
255
72
1
254
254
255
255
81
1
254
254
255
255
85
1
254
254
255
255
91
1
254
254
255
255
92
1
254
254
255
255
92
1
254
254
255
255
87
1
254
254
255
255
55
1
254
254
255
255
64
1
254
254
255
255
86
1
254
254
255
255
75
1
254
254
255
255
78
1
254
254
255
255
84
1
254
254
255
255
91
1
254
254
255
255
58
1
254
254
255
255
64
1
254
254
255
255
81
1
254
254
255
255
87
1
254
254
255
255
70
1
254
254
255
255
65
1
254
254
255
255
79
1
254
254
255
255
74
1
254
254
255
255
78
1
254
254
255
255
85
1
254
254
255
255
91
1
254
254
255
255
87
1
254
254
255
255
87
1
254
254
255
255
78
1
254
254
255
255
85
1
254
254
255
255
86
1
254
254
255
255
88
1
254
254
255
255
86
1
254
254
255
255
88
1
254
254
255
255
87
1
254
254
255
255
87
1
254
254
255
255
34
1
254
254
255
255
67
1
254
254
255
255
89
1
254
254
255
255
86
1
254
254
255
255
88
1
254
254
255
255
88
1
254
254
255
255
86
1
254
254
255
255
87
1
254
254
255
255
85
1
254
254
255
255
86
1
254
254
255
255
90
1
254
254
255
255
87
1
254
254
255
255
86
1
254
254
255
255
90
1
254
254
255
255
88
1
254
254
255
255
87
1
254
254
255
255
108
1
254
254
255
255
95
1
254
254
255
255
91
1
254
254
255
255
89
1
254
254
255
255
90
1
254
254
255
255
105
1
254
254
255
255
100
1
254
254
255
255
89
1
254
254
255
255
123
1
254
254
255
255
100
1
254
254
255
255
86
1
254
254
255
255
87
1
254
254
255
255
87
1
254
254
255
255
96
1
254
254
255
255
92
1
254
254
255
255
87
1
254
254
255
255
95
1
254
254
255
255
90
1
254
254
255
255
91
1
254
254
255
255
88
1
254
254
255
255
88
1
254
254
255
255
99
1
254
254
255
255
96
1
254
254
255
255
88
1
254
254
255
255
89
1
254
254
255
255
88
1
254
254
255
255
106
1
254
254
255
255
97
1
254
254
255
255
91
1
254
254
255
255
95
1
254
254
255
255
93
1
254
254
255
255
88
1
254
254
255
255
101
1
254
254
255
255
92
1
254
254
255
255
87
1
254
254
255
255
95
1
254
254
255
255
88
1
254
254
255
255
88
1
254
254
255
255
88
1
254
254
255
255
89
1
254
254
255
255
105
1
254
254
255
255
94
1
254
254
255
255
88
1
254
254
255
255
88
1
254
254
255
255
90
1
254
254
255
255
92
1
254
254
255
255
90
1
254
254
255
255
89
1
254
254
255
255
91
1
254
254
255
255
90
1
254
254
255
255
90
1
254
254
255
255
90
1
254
254
255
255
92
1
254
254
255
255
94
1
254
254
255
255
91
1
254
254
255
255
91
1
254
254
255
255
91
1
254
254
255
255
90
1
254
254
255
255
91
1
254
254
255
255
94
1
254
254
255
255
91
1
254
254
255
255
92
1
254
254
255
255
91
1
254
254
255
255
91
1
254
254
255
255
90
1
254
254
255
255
91
1
254
254
255
255
90
1
254
254
255
255
97
1
254
254
255
255
91
1
254
254
255
255
94
1
254
254
255
255
92
1
254
254
255
255
91
1
254
254
255
255
101
1
254
254
255
255
94
1
254
254
255
255
89
1
254
254
255
255
90
1
254
254
255
255
91
1
254
254
255
255
90
1
254
254
255
255
89
1
254
254
255
255
90
1
254
254
255
255
124
1
254
254
255
255
101
1
254
254
255
255
87
1
254
254
255
255
88
1
254
254
255
255
90
1
254
254
255
255
95
1
254
254
255
255
93
1
254
254
255
255
90
1
254
254
255
255
89
1
254
254
255
255
90
1
254
254
255
255
91
1
254
254
255
255
90
1
254
254
255
255
90
1
254
254
255
255
89
1
254
254
255
255
89
1
254
254
255
255
90
1
254
254
255
255
89
1
254
254
255
255
90
1
254
254
255
255
90
1
254
254
255
255
89
1
254
254
255
255
89
1
254
254
255
255
90
1
254
254
255
255
89
1
254
254
255
255
88
1
254
254
255
255
93
1
254
254
255
255
90
1
254
254
255
255
89
1
254
254
255
255
96
1
254
254
255
255
90
1
254
254
255
255
92
1
254
254
11
90
11
255
255
97
1
254
254
255
255
98
1
254
254
255
255
90
1
254
254
255
255
91
1
254
254
255
255
86
1
254
254
255
255
83
1
254
254
255
255
87
1
254
254
255
255
87
1
254
254
255
255
85
1
254
254
255
255
96
1
254
254
255
255
92
1
254
254
255
255
87
1
254
254
255
255
91
1
254
254
255
255
88
1
254
254
255
255
86
1
254
254
255
255
85
1
254
254
255
255
86
1
254
254
255
255
90
1
254
254
255
255
90
1
254
254
255
255
86
1
254
254
255
255
91
1
254
254
255
255
88
1
254
254
255
255
86
1
254
254
255
255
93
1
254
254
255
255
87
1
254
254
255
255
92
1
254
254
255
255
89
1
254
254
255
255
87
1
254
254
255
255
104
1
254
254
255
255
97
1
254
254
255
255
89
1
254
254
255
255
90
1
254
254
255
255
86
1
254
254
255
255
93
1
254
254
255
255
101
1
254
254
255
255
88
1
254
254
255
255
103
1
254
254
255
255
95
1
254
254
255
255
86
1
254
254
255
255
88
1
254
254
255
255
87
1
254
254
255
255
101
1
254
254
255
255
94
1
254
254
255
255
88
1
254
254
255
255
94
1
254
254
255
255
93
1
254
254
255
255
88
1
254
254
255
255
103
1
254
254
255
255
94
1
254
254
255
255
97
1
254
254
255
255
92
1
254
254
255
255
87
1
254
254
255
255
90
1
254
254
255
255
88
1
254
254
255
255
87
1
254
254
255
255
93
1
254
254
255
255
89
1
254
254
255
255
88
1
254
254
255
255
87
1
254
254
255
255
87
1
254
254
255
255
97
1
254
254
255
255
92
1
254
254
255
255
86
1
254
254
255
255
90
1
254
254
255
255
87
1
254
254
255
255
95
1
254
254
255
255
91
1
254
254
255
255
87
1
254
254
255
255
73
1
254
254
255
255
78
1
254
254
255
255
87
1
254
254
255
255
107
1
254
254
255
255
92
1
254
254
255
255
87
1
254
254
255
255
85
1
254
254
255
255
87
1
254
254
255
255
110
1
254
254
255
255
103
1
254
254
255
255
87
1
254
254
255
255
84
1
254
254
255
255
86
1
254
254
255
255
97
1
254
254
255
255
90
1
254
254
255
255
87
1
254
254
255
255
95
1
254
254
255
255
89
1
254
254
255
255
89
1
254
254
255
255
84
1
254
254
255
255
86
1
254
254
255
255
46
1
254
254
255
255
56
1
254
254
255
255
83
1
254
254
255
255
92
1
254
254
255
255
87
1
254
254
255
255
87
1
254
254
255
255
86
1
254
254
255
255
88
1
254
254
255
255
88
1
254
254
255
255
91
1
254
254
255
255
88
1
254
254
255
255
88
1
254
254
255
255
87
1
254
254
255
255
89
1
254
254
255
255
87
1
254
254
255
255
88
1
254
254
255
255
32
1
254
254
255
255
52
1
254
254
255
255
82
1
254
254
255
255
103
1
254
254
255
255
97
1
254
254
255
255
88
1
254
254
255
255
85
1
254
254
255
255
87
1
254
254
255
255
120
1
254
254
255
255
112
1
254
254
255
255
93
1
254
254
255
255
91
1
254
254
255
255
90
1
254
254
255
255
88
1
254
254
255
255
91
1
254
254
255
255
89
1
254
254
255
255
86
1
254
254
255
255
85
1
254
254
255
255
87
1
254
254
255
255
77
1
254
254
255
255
80
1
254
254
255
255
89
1
254
254
255
255
90
1
254
254
255
255
89
1
254
254
255
255
40
1
254
254
255
255
55
1
254
254
255
255
81
1
254
254
255
255
92
1
254
254
255
255
87
1
254
254
255
255
86
1
254
254
255
255
79
1
254
254
255
255
83
1
254
254
255
255
32
1
254
254
255
255
55
1
254
254
255
255
80
1
254
254
255
255
94
1
254
254
255
255
88
1
254
254
255
255
86
1
254
254
255
255
77
1
254
254
255
255
83
1
254
254
255
255
94
1
254
254
255
255
93
1
254
254
255
255
86
1
254
254
255
255
59
1
254
254
255
255
66
1
254
254
255
255
86
1
254
254
48
55
52
51
49
48
255
255
84
1
254
254
255
255
86
1
254
254
11
90
11
255
255
83
1
254
254
255
255
88
1
254
254
255
255
81
1
254
254
255
255
85
1
254
254
255
255
86
1
254
254
255
255
89
1
254
254
255
255
92
1
254
254
255
255
90
1
254
254
255
255
91
1
254
254
255
255
87
1
254
254
255
255
86
1
254
254
255
255
86
1
254
254
255
255
86
1
254
254
255
255
87
1
254
254
255
255
93
1
254
254
255
255
97
1
254
254
255
255
89
1
254
254
255
255
86
1
254
254
255
255
69
1
254
254
255
255
59
1
254
254
255
255
75
1
254
254
255
255
84
1
254
254
255
255
34
1
254
254
255
255
55
1
254
254
255
255
84
1
254
254
255
255
88
1
254
254
255
255
85
1
254
254
255
255
88
1
254
254
255
255
95
1
254
254
255
255
95
1
254
254
255
255
86
1
254
254
255
255
72
1
254
254
255
255
80
1
254
254
255
255
87
1
254
254
255
255
84
1
254
254
255
255
86
1
254
254
255
255
87
1
254
254
255
255
86
1
254
254
255
255
87
1
254
254
255
255
90
1
254
254
255
255
88
1
254
254
255
255
86
1
254
254
255
255
108
1
254
254
255
255
91
1
254
254
255
255
85
1
254
254
255
255
82
1
254
254
255
255
86
1
254
254
255
255
90
1
254
254
255
255
88
1
254
254
255
255
86
1
254
254
255
255
69
1
254
254
255
255
82
1
254
254
255
255
98
1
254
254
255
255
96
1
254
254
255
255
87
1
254
254
255
255
80
1
254
254
255
255
83
1
254
254
255
255
87
1
254
254
255
255
85
1
254
254
255
255
86
1
254
254
255
255
89
1
254
254
255
255
87
1
254
254
255
255
87
1
254
254
255
255
57
1
254
254
255
255
75
1
254
254
255
255
94
1
254
254
255
255
94
1
254
254
255
255
92
1
254
254
255
255
95
1
254
254
255
255
94
1
254
254
255
255
89
1
254
254
255
255
89
1
254
254
255
255
87
1
254
254
255
255
86
1
254
254
255
255
96
1
254
254
255
255
88
1
254
254
255
255
85
1
254
254
255
255
84
1
254
254
255
255
86
1
254
254
255
255
86
1
254
254
255
255
91
1
254
254
255
255
92
1
254
254
255
255
81
1
254
254
255
255
86
1
254
254
255
255
76
1
254
254
255
255
67
1
254
254
255
255
85
1
254
254
255
255
84
1
254
254
255
255
83
1
254
254
255
255
86
1
254
254
255
255
75
1
254
254
255
255
83
1
254
254
255
255
91
1
254
254
255
255
89
1
254
254
255
255
87
1
254
254
255
255
92
1
254
254
255
255
89
1
254
254
255
255
86
1
254
254
255
255
82
1
254
254
255
255
85
1
254
254
255
255
82
1
254
254
255
255
77
1
254
254
255
255
86
1
254
254
255
255
94
1
254
254
255
255
89
1
254
254
255
255
86
1
254
254
255
255
90
1
254
254
255
255
90
1
254
254
255
255
82
1
254
254
255
255
72
1
254
254
255
255
88
1
254
254
255
255
74
1
254
254
255
255
80
1
254
254
255
255
87
1
254
254
255
255
94
1
254
254
255
255
88
1
254
254
255
255
91
1
254
254
255
255
92
1
254
254
255
255
87
1
254
254
255
255
88
1
254
254
255
255
91
1
254
254
255
255
89
1
254
254
255
255
85
1
254
254
255
255
88
1
254
254
255
255
88
1
254
254
255
255
84
1
254
254
255
255
86
1
254
254
255
255
89
1
254
254
255
255
88
1
254
254
255
255
87
1
254
254
255
255
81
1
254
254
255
255
84
1
254
254
255
255
88
1
254
254
255
255
87
1
254
254
255
255
90
1
254
254
255
255
86
1
254
254
255
255
86
1
254
254
255
255
87
1
254
254
255
255
87
1
254
254
255
255
87
1
254
254
255
255
86
1
254
254
255
255
87
1
254
254
255
255
86
1
254
254
255
255
67
1
254
254
255
255
77
1
254
254
255
255
87
1
254
254
255
255
91
1
254
254
255
255
87
1
254
254
255
255
92
1
254
254
255
255
90
1
254
254
255
255
86
1
254
254
255
255
86
1
254
254
255
255
86
1
254
254
255
255
87
1
254
254
255
255
55
1
254
254
255
255
79
1
254
254
255
255
84
1
254
254
255
255
74
1
254
254
255
255
85
1
254
254
255
255
89
1
254
254
255
255
87
1
254
254
255
255
86
1
254
254
255
255
84
1
254
254
255
255
87
1
254
254
255
255
89
1
254
254
255
255
86
1
254
254
11
89
11
255
255
73
1
254
254
255
255
79
1
254
254
255
255
87
1
254
254
255
255
80
1
254
254
255
255
66
1
254
254
255
255
73
1
254
254
255
255
86
1
254
254
255
255
69
1
254
254
255
255
75
1
254
254
255
255
83
1
254
254
255
255
78
1
254
254
255
255
82
1
254
254
255
255
84
1
254
254
255
255
89
1
254
254
255
255
96
1
254
254
255
255
89
1
254
254
255
255
90
1
254
254
255
255
87
1
254
254
255
255
86
1
254
254
255
255
74
1
254
254
255
255
73
1
254
254
255
255
85
1
254
254
255
255
95
1
254
254
255
255
90
1
254
254
255
255
54
1
254
254
255
255
62
1
254
254
255
255
81
1
254
254
255
255
92
1
254
254
255
255
87
1
254
254
255
255
86
1
254
254
255
255
84
1
254
254
255
255
84
1
254
254
255
255
61
1
254
254
255
255
71
1
254
254
255
255
82
1
254
254
255
255
92
1
254
254
255
255
92
1
254
254
255
255
89
1
254
254
255
255
86
1
254
254
255
255
86
1
254
254
255
255
89
1
254
254
255
255
87
1
254
254
255
255
86
1
254
254
255
255
80
1
254
254
255
255
80
1
254
254
255
255
84
1
254
254
255
255
98
1
254
254
255
255
89
1
254
254
255
255
89
1
254
254
255
255
88
1
254
254
255
255
95
1
254
254
255
255
77
1
254
254
255
255
76
1
254
254
255
255
86
1
254
254
255
255
84
1
254
254
255
255
85
1
254
254
255
255
86
1
254
254
255
255
84
1
254
254
255
255
86
1
254
254
255
255
79
1
254
254
255
255
79
1
254
254
255
255
86
1
254
254
255
255
79
1
254
254
255
255
82
1
254
254
255
255
92
1
254
254
255
255
88
1
254
254
255
255
86
1
254
254
255
255
84
1
254
254
255
255
83
1
254
254
255
255
86
1
254
254
255
255
90
1
254
254
255
255
88
1
254
254
255
255
87
1
254
254
255
255
86
1
254
254
255
255
86
1
254
254
255
255
82
1
254
254
255
255
83
1
254
254
255
255
85
1
254
254
255
255
84
1
254
254
255
255
85
1
254
254
255
255
89
1
254
254
255
255
86
1
254
254
255
255
86
1
254
254
255
255
90
1
254
254
255
255
91
1
254
254
255
255
86
1
254
254
255
255
74
1
254
254
255
255
82
1
254
254
255
255
100
1
254
254
255
255
102
1
254
254
255
255
89
1
254
254
255
255
84
1
254
254
255
255
91
1
254
254
255
255
93
1
254
254
255
255
70
1
254
254
255
255
80
1
254
254
255
255
87
1
254
254
255
255
87
1
254
254
255
255
87
1
254
254
255
255
80
1
254
254
255
255
75
1
254
254
255
255
86
1
254
254
255
255
90
1
254
254
255
255
87
1
254
254
255
255
88
1
254
254
255
255
88
1
254
254
255
255
93
1
254
254
255
255
87
1
254
254
255
255
87
1
254
254
255
255
85
1
254
254
255
255
78
1
254
254
255
255
83
1
254
254
255
255
84
1
254
254
255
255
82
1
254
254
255
255
85
1
254
254
255
255
89
1
254
254
255
255
87
1
254
254
255
255
87
1
254
254
255
255
93
1
254
254
255
255
93
1
254
254
255
255
91
1
254
254
255
255
88
1
254
254
255
255
87
1
254
254
255
255
92
1
254
254
255
255
91
1
254
254
255
255
86
1
254
254
255
255
73
1
254
254
255
255
80
1
254
254
255
255
86
1
254
254
255
255
83
1
254
254
255
255
86
1
254
254
255
255
81
1
254
254
255
255
87
1
254
254
255
255
93
1
254
254
255
255
89
1
254
254
255
255
85
1
254
254
255
255
102
1
254
254
255
255
99
1
254
254
255
255
89
1
254
254
255
255
85
1
254
254
255
255
85
1
254
254
255
255
86
1
254
254
255
255
85
1
254
254
255
255
86
1
254
254
255
255
86
1
254
254
255
255
85
1
254
254
255
255
86
1
254
254
255
255
78
1
254
254
255
255
82
1
254
254
255
255
86
1
254
254
255
255
74
1
254
254
48
55
52
51
49
48
255
255
91
1
254
254
255
255
97
1
254
254
255
255
103
1
254
254
11
88
11
255
255
83
1
254
254
255
255
85
1
254
254
255
255
85
1
254
254
255
255
87
1
254
254
255
255
77
1
254
254
255
255
84
1
254
254
255
255
85
1
254
254
255
255
86
1
254
254
255
255
79
1
254
254
255
255
78
1
254
254
255
255
83
1
254
254
255
255
85
1
254
254
255
255
92
1
254
254
255
255
89
1
254
254
255
255
87
1
254
254
255
255
86
1
254
254
255
255
89
1
254
254
255
255
88
1
254
254
255
255
85
1
254
254
255
255
88
1
254
254
255
255
78
1
254
254
255
255
78
1
254
254
255
255
83
1
254
254
255
255
91
1
254
254
255
255
90
1
254
254
255
255
89
1
254
254
255
255
89
1
254
254
255
255
86
1
254
254
255
255
90
1
254
254
255
255
95
1
254
254
255
255
92
1
254
254
255
255
90
1
254
254
255
255
93
1
254
254
255
255
91
1
254
254
255
255
92
1
254
254
255
255
91
1
254
254
255
255
90
1
254
254
255
255
89
1
254
254
255
255
89
1
254
254
255
255
90
1
254
254
255
255
55
1
254
254
255
255
81
1
254
254
255
255
89
1
254
254
255
255
76
1
254
254
255
255
88
1
254
254
255
255
90
1
254
254
255
255
89
1
254
254
255
255
90
1
254
254
255
255
99
1
254
254
255
255
92
1
254
254
255
255
93
1
254
254
255
255
94
1
254
254
255
255
90
1
254
254
255
255
89
1
254
254
255
255
88
1
254
254
255
255
88
1
254
254
255
255
89
1
254
254
255
255
89
1
254
254
255
255
91
1
254
254
255
255
94
1
254
254
255
255
91
1
254
254
255
255
90
1
254
254
255
255
90
1
254
254
255
255
89
1
254
254
255
255
87
1
254
254
255
255
88
1
254
254
255
255
87
1
254
254
255
255
86
1
254
254
255
255
89
1
254
254
255
255
99
1
254
254
255
255
94
1
254
254
255
255
88
1
254
254
255
255
110
1
254
254
255
255
95
1
254
254
255
255
87
1
254
254
255
255
81
1
254
254
255
255
89
1
254
254
255
255
88
1
254
254
255
255
88
1
254
254
255
255
89
1
254
254
255
255
90
1
254
254
255
255
89
1
254
254
255
255
89
1
254
254
255
255
95
1
254
254
255
255
89
1
254
254
255
255
58
1
254
254
255
255
73
1
254
254
255
255
90
1
254
254
255
255
90
1
254
254
255
255
88
1
254
254
255
255
88
1
254
254
255
255
88
1
254
254
255
255
88
1
254
254
255
255
60
1
254
254
255
255
73
1
254
254
255
255
89
1
254
254
255
255
85
1
254
254
255
255
87
1
254
254
255
255
62
1
254
254
255
255
71
1
254
254
255
255
87
1
254
254
255
255
96
1
254
254
255
255
91
1
254
254
255
255
87
1
254
254
255
255
81
1
254
254
255
255
86
1
254
254
255
255
61
1
254
254
255
255
69
1
254
254
255
255
85
1
254
254
255
255
90
1
254
254
255
255
89
1
254
254
255
255
88
1
254
254
255
255
74
1
254
254
255
255
84
1
254
254
255
255
93
1
254
254
255
255
89
1
254
254
255
255
87
1
254
254
255
255
80
1
254
254
255
255
84
1
254
254
255
255
87
1
254
254
255
255
17
1
254
254
255
255
69
1
254
254
255
255
94
1
254
254
255
255
91
1
254
254
255
255
84
1
254
254
255
255
90
1
254
254
255
255
88
1
254
254
255
255
86
1
254
254
255
255
85
1
254
254
255
255
86
1
254
254
255
255
88
1
254
254
255
255
92
1
254
254
255
255
87
1
254
254
255
255
72
1
254
254
255
255
80
1
254
254
255
255
85
1
254
254
255
255
92
1
254
254
255
255
88
1
254
254
255
255
88
1
254
254
255
255
86
1
254
254
255
255
84
1
254
254
255
255
83
1
254
254
255
255
86
1
254
254
255
255
87
1
254
254
255
255
85
1
254
254
255
255
86
1
254
254
255
255
85
1
254
254
255
255
76
1
254
254
255
255
85
1
254
254
255
255
85
1
254
254
255
255
85
1
254
254
255
255
84
1
254
254
255
255
88
1
254
254
255
255
86
1
254
254
255
255
100
1
254
254
255
255
108
1
254
254
255
255
91
1
254
254
255
255
92
1
254
254
255
255
87
1
254
254
255
255
87
1
254
254
255
255
82
1
254
254
255
255
85
1
254
254
255
255
88
1
254
254
255
255
85
1
254
254
255
255
86
1
254
254
11
88
11
255
255
91
1
254
254
255
255
89
1
254
254
255
255
73
1
254
254
255
255
74
1
254
254
255
255
86
1
254
254
255
255
86
1
254
254
255
255
70
1
254
254
255
255
65
1
254
254
255
255
79
1
254
254
255
255
86
1
254
254
255
255
94
1
254
254
255
255
89
1
254
254
255
255
88
1
254
254
255
255
95
1
254
254
255
255
91
1
254
254
255
255
247
0
254
254
255
255
9
1
254
254
255
255
74
1
254
254
255
255
106
1
254
254
255
255
99
1
254
254
255
255
89
1
254
254
255
255
71
1
254
254
255
255
82
1
254
254
255
255
88
1
254
254
255
255
89
1
254
254
255
255
87
1
254
254
255
255
88
1
254
254
255
255
88
1
254
254
255
255
87
1
254
254
255
255
70
1
254
254
255
255
80
1
254
254
255
255
90
1
254
254
255
255
90
1
254
254
255
255
86
1
254
254
255
255
87
1
254
254
255
255
86
1
254
254
255
255
86
1
254
254
255
255
49
1
254
254
255
255
73
1
254
254
255
255
71
1
254
254
255
255
74
1
254
254
255
255
83
1
254
254
255
255
94
1
254
254
255
255
92
1
254
254
255
255
88
1
254
254
255
255
81
1
254
254
255
255
86
1
254
254
255
255
101
1
254
254
255
255
100
1
254
254
255
255
89
1
254
254
255
255
80
1
254
254
255
255
82
1
254
254
255
255
86
1
254
254
255
255
112
1
254
254
255
255
95
1
254
254
255
255
83
1
254
254
255
255
82
1
254
254
255
255
86
1
254
254
255
255
90
1
254
254
255
255
88
1
254
254
255
255
86
1
254
254
255
255
80
1
254
254
255
255
84
1
254
254
255
255
74
1
254
254
255
255
77
1
254
254
255
255
85
1
254
254
255
255
86
1
254
254
255
255
85
1
254
254
255
255
87
1
254
254
255
255
76
1
254
254
255
255
83
1
254
254
255
255
91
1
254
254
255
255
93
1
254
254
255
255
87
1
254
254
255
255
98
1
254
254
255
255
96
1
254
254
255
255
89
1
254
254
255
255
89
1
254
254
255
255
88
1
254
254
255
255
71
1
254
254
255
255
77
1
254
254
255
255
85
1
254
254
255
255
53
1
254
254
255
255
46
1
254
254
255
255
86
1
254
254
255
255
88
1
254
254
255
255
90
1
254
254
255
255
88
1
254
254
255
255
88
1
254
254
255
255
87
1
254
254
255
255
77
1
254
254
255
255
76
1
254
254
255
255
87
1
254
254
255
255
91
1
254
254
255
255
89
1
254
254
255
255
105
1
254
254
255
255
98
1
254
254
255
255
91
1
254
254
255
255
87
1
254
254
255
255
89
1
254
254
255
255
90
1
254
254
255
255
93
1
254
254
255
255
90
1
254
254
255
255
94
1
254
254
255
255
90
1
254
254
255
255
90
1
254
254
255
255
83
1
254
254
255
255
84
1
254
254
255
255
89
1
254
254
255
255
89
1
254
254
255
255
90
1
254
254
255
255
36
1
254
254
255
255
44
1
254
254
255
255
82
1
254
254
255
255
70
1
254
254
255
255
69
1
254
254
255
255
90
1
254
254
255
255
78
1
254
254
255
255
85
1
254
254
255
255
7
1
254
254
255
255
28
1
254
254
255
255
79
1
254
254
255
255
98
1
254
254
255
255
91
1
254
254
255
255
90
1
254
254
255
255
89
1
254
254
255
255
89
1
254
254
255
255
86
1
254
254
255
255
85
1
254
254
255
255
89
1
254
254
255
255
87
1
254
254
255
255
85
1
254
254
255
255
90
1
254
254
255
255
71
1
254
254
255
255
83
1
254
254
255
255
53
1
254
254
255
255
63
1
254
254
255
255
85
1
254
254
255
255
92
1
254
254
255
255
91
1
254
254
255
255
90
1
254
254
255
255
90
1
254
254
255
255
90
1
254
254
255
255
86
1
254
254
255
255
87
1
254
254
255
255
89
1
254
254
255
255
94
1
254
254
255
255
92
1
254
254
255
255
90
1
254
254
255
255
79
1
254
254
255
255
86
1
254
254
48
55
52
51
49
48
255
255
90
1
254
254
255
255
91
1
254
254
255
255
87
1
254
254
11
88
11
255
255
79
1
254
254
255
255
82
1
254
254
255
255
88
1
254
254
255
255
89
1
254
254
255
255
85
1
254
254
255
255
90
1
254
254
255
255
87
1
254
254
255
255
92
1
254
254
255
255
77
1
254
254
255
255
81
1
254
254
255
255
85
1
254
254
255
255
69
1
254
254
255
255
76
1
254
254
255
255
82
1
254
254
255
255
91
1
254
254
255
255
84
1
254
254
255
255
83
1
254
254
255
255
86
1
254
254
255
255
86
1
254
254
255
255
90
1
254
254
255
255
89
1
254
254
255
255
91
1
254
254
255
255
87
1
254
254
255
255
86
1
254
254
255
255
86
1
254
254
255
255
69
1
254
254
255
255
75
1
254
254
255
255
88
1
254
254
255
255
88
1
254
254
255
255
84
1
254
254
255
255
86
1
254
254
255
255
90
1
254
254
255
255
88
1
254
254
255
255
84
1
254
254
255
255
78
1
254
254
255
255
87
1
254
254
255
255
93
1
254
254
255
255
89
1
254
254
255
255
86
1
254
254
255
255
94
1
254
254
255
255
89
1
254
254
255
255
84
1
254
254
255
255
79
1
254
254
255
255
86
1
254
254
255
255
88
1
254
254
255
255
87
1
254
254
255
255
87
1
254
254
255
255
98
1
254
254
255
255
89
1
254
254
255
255
84
1
254
254
255
255
80
1
254
254
255
255
86
1
254
254
255
255
87
1
254
254
255
255
86
1
254
254
255
255
87
1
254
254
255
255
87
1
254
254
255
255
88
1
254
254
255
255
90
1
254
254
255
255
88
1
254
254
255
255
87
1
254
254
255
255
94
1
254
254
255
255
91
1
254
254
255
255
87
1
254
254
255
255
70
1
254
254
255
255
82
1
254
254
255
255
88
1
254
254
255
255
84
1
254
254
255
255
88
1
254
254
255
255
90
1
254
254
255
255
89
1
254
254
255
255
88
1
254
254
255
255
85
1
254
254
255
255
86
1
254
254
255
255
86
1
254
254
255
255
82
1
254
254
255
255
86
1
254
254
255
255
82
1
254
254
255
255
84
1
254
254
255
255
87
1
254
254
255
255
84
1
254
254
255
255
86
1
254
254
255
255
92
1
254
254
255
255
92
1
254
254
255
255
88
1
254
254
255
255
90
1
254
254
255
255
89
1
254
254
255
255
87
1
254
254
255
255
66
1
254
254
255
255
82
1
254
254
255
255
86
1
254
254
255
255
88
1
254
254
255
255
87
1
254
254
255
255
91
1
254
254
255
255
88
1
254
254
255
255
89
1
254
254
255
255
89
1
254
254
255
255
86
1
254
254
255
255
87
1
254
254
255
255
86
1
254
254
255
255
87
1
254
254
255
255
54
1
254
254
255
255
74
1
254
254
255
255
92
1
254
254
255
255
83
1
254
254
255
255
87
1
254
254
255
255
94
1
254
254
255
255
98
1
254
254
255
255
89
1
254
254
255
255
89
1
254
254
255
255
89
1
254
254
255
255
89
1
254
254
255
255
91
1
254
254
255
255
90
1
254
254
255
255
90
1
254
254
255
255
89
1
254
254
255
255
89
1
254
254
255
255
95
1
254
254
255
255
93
1
254
254
255
255
89
1
254
254
255
255
88
1
254
254
255
255
87
1
254
254
255
255
89
1
254
254
255
255
88
1
254
254
255
255
88
1
254
254
255
255
56
1
254
254
255
255
71
1
254
254
255
255
90
1
254
254
255
255
61
1
254
254
255
255
81
1
254
254
255
255
94
1
254
254
255
255
97
1
254
254
255
255
89
1
254
254
255
255
71
1
254
254
255
255
79
1
254
254
255
255
89
1
254
254
255
255
93
1
254
254
255
255
90
1
254
254
255
255
89
1
254
254
255
255
87
1
254
254
255
255
88
1
254
254
255
255
74
1
254
254
255
255
81
1
254
254
255
255
88
1
254
254
255
255
84
1
254
254
255
255
85
1
254
254
255
255
88
1
254
254
255
255
85
1
254
254
255
255
86
1
254
254
255
255
79
1
254
254
255
255
84
1
254
254
255
255
89
1
254
254
255
255
89
1
254
254
255
255
86
1
254
254
255
255
86
1
254
254
255
255
83
1
254
254
255
255
86
1
254
254
255
255
17
1
254
254
255
255
52
1
254
254
255
255
89
1
254
254
255
255
99
1
254
254
255
255
88
1
254
254
255
255
86
1
254
254
255
255
85
1
254
254
255
255
90
1
254
254
255
255
90
1
254
254
11
88
11
255
255
82
1
254
254
255
255
85
1
254
254
255
255
92
1
254
254
255
255
87
1
254
254
255
255
86
1
254
254
255
255
83
1
254
254
255
255
85
1
254
254
255
255
85
1
254
254
255
255
89
1
254
254
255
255
93
1
254
254
255
255
88
1
254
254
255
255
85
1
254
254
255
255
86
1
254
254
255
255
86
1
254
254
255
255
86
1
254
254
255
255
83
1
254
254
255
255
86
1
254
254
255
255
85
1
254
254
255
255
86
1
254
254
255
255
94
1
254
254
255
255
93
1
254
254
255
255
88
1
254
254
255
255
85
1
254
254
255
255
92
1
254
254
255
255
92
1
254
254
255
255
88
1
254
254
255
255
86
1
254
254
255
255
92
1
254
254
255
255
89
1
254
254
255
255
95
1
254
254
255
255
89
1
254
254
255
255
87
1
254
254
255
255
81
1
254
254
255
255
87
1
254
254
255
255
88
1
254
254
255
255
75
1
254
254
255
255
83
1
254
254
255
255
86
1
254
254
255
255
100
1
254
254
255
255
95
1
254
254
255
255
88
1
254
254
255
255
82
1
254
254
255
255
83
1
254
254
255
255
87
1
254
254
255
255
85
1
254
254
255
255
86
1
254
254
255
255
89
1
254
254
255
255
92
1
254
254
255
255
88
1
254
254
255
255
85
1
254
254
255
255
84
1
254
254
255
255
86
1
254
254
255
255
89
1
254
254
255
255
87
1
254
254
255
255
86
1
254
254
255
255
86
1
254
254
255
255
87
1
254
254
255
255
90
1
254
254
255
255
91
1
254
254
255
255
88
1
254
254
255
255
83
1
254
254
255
255
87
1
254
254
255
255
85
1
254
254
255
255
84
1
254
254
255
255
86
1
254
254
255
255
94
1
254
254
255
255
93
1
254
254
255
255
87
1
254
254
255
255
82
1
254
254
255
255
85
1
254
254
255
255
90
1
254
254
255
255
86
1
254
254
255
255
86
1
254
254
255
255
86
1
254
254
255
255
85
1
254
254
255
255
88
1
254
254
255
255
86
1
254
254
255
255
86
1
254
254
255
255
83
1
254
254
255
255
83
1
254
254
255
255
85
1
254
254
255
255
89
1
254
254
255
255
87
1
254
254
255
255
87
1
254
254
255
255
88
1
254
254
255
255
87
1
254
254
255
255
86
1
254
254
255
255
84
1
254
254
255
255
88
1
254
254
255
255
92
1
254
254
255
255
91
1
254
254
255
255
90
1
254
254
255
255
88
1
254
254
255
255
89
1
254
254
255
255
71
1
254
254
255
255
75
1
254
254
255
255
87
1
254
254
255
255
91
1
254
254
255
255
88
1
254
254
255
255
88
1
254
254
255
255
99
1
254
254
255
255
92
1
254
254
255
255
80
1
254
254
255
255
80
1
254
254
255
255
87
1
254
254
255
255
86
1
254
254
255
255
84
1
254
254
255
255
88
1
254
254
255
255
87
1
254
254
255
255
88
1
254
254
255
255
91
1
254
254
255
255
90
1
254
254
255
255
87
1
254
254
255
255
84
1
254
254
255
255
84
1
254
254
255
255
89
1
254
254
255
255
89
1
254
254
255
255
89
1
254
254
255
255
82
1
254
254
255
255
83
1
254
254
255
255
87
1
254
254
255
255
89
1
254
254
255
255
85
1
254
254
255
255
86
1
254
254
255
255
86
1
254
254
255
255
86
1
254
254
255
255
88
1
254
254
255
255
88
1
254
254
255
255
88
1
254
254
255
255
90
1
254
254
255
255
86
1
254
254
255
255
86
1
254
254
255
255
82
1
254
254
255
255
85
1
254
254
255
255
98
1
254
254
255
255
97
1
254
254
255
255
88
1
254
254
255
255
84
1
254
254
255
255
84
1
254
254
255
255
86
1
254
254
255
255
76
1
254
254
255
255
83
1
254
254
48
55
52
51
49
48
255
255
81
1
254
254
255
255
83
1
254
254
255
255
86
1
254
254
255
255
90
1
254
254
255
255
72
1
254
254
11
88
11
255
255
87
1
254
254
255
255
79
1
254
254
255
255
81
1
254
254
255
255
86
1
254
254
255
255
87
1
254
254
255
255
1
1
254
254
255
255
18
1
254
254
255
255
66
1
254
254
255
255
90
1
254
254
255
255
78
1
254
254
255
255
79
1
254
254
255
255
83
1
254
254
255
255
86
1
254
254
255
255
88
1
254
254
255
255
87
1
254
254
255
255
86
1
254
254
255
255
85
1
254
254
255
255
24
1
254
254
255
255
15
1
254
254
255
255
59
1
254
254
255
255
88
1
254
254
255
255
95
1
254
254
255
255
93
1
254
254
255
255
87
1
254
254
255
255
86
1
254
254
255
255
86
1
254
254
255
255
78
1
254
254
255
255
82
1
254
254
255
255
86
1
254
254
255
255
70
1
254
254
255
255
82
1
254
254
255
255
91
1
254
254
255
255
89
1
254
254
255
255
93
1
254
254
255
255
92
1
254
254
255
255
92
1
254
254
255
255
94
1
254
254
255
255
86
1
254
254
255
255
86
1
254
254
255
255
85
1
254
254
255
255
83
1
254
254
255
255
86
1
254
254
255
255
84
1
254
254
255
255
85
1
254
254
255
255
87
1
254
254
255
255
87
1
254
254
255
255
86
1
254
254
255
255
92
1
254
254
255
255
87
1
254
254
255
255
94
1
254
254
255
255
88
1
254
254
255
255
87
1
254
254
255
255
87
1
254
254
255
255
72
1
254
254
255
255
83
1
254
254
255
255
93
1
254
254
255
255
87
1
254
254
255
255
86
1
254
254
255
255
92
1
254
254
255
255
88
1
254
254
255
255
91
1
254
254
255
255
94
1
254
254
255
255
93
1
254
254
255
255
89
1
254
254
255
255
90
1
254
254
255
255
87
1
254
254
255
255
76
1
254
254
255
255
80
1
254
254
255
255
90
1
254
254
255
255
101
1
254
254
255
255
89
1
254
254
255
255
86
1
254
254
255
255
86
1
254
254
255
255
87
1
254
254
255
255
95
1
254
254
255
255
93
1
254
254
255
255
92
1
254
254
255
255
94
1
254
254
255
255
87
1
254
254
255
255
89
1
254
254
255
255
89
1
254
254
255
255
87
1
254
254
255
255
89
1
254
254
255
255
87
1
254
254
255
255
86
1
254
254
255
255
84
1
254
254
255
255
86
1
254
254
255
255
69
1
254
254
255
255
55
1
254
254
255
255
84
1
254
254
255
255
66
1
254
254
255
255
77
1
254
254
255
255
87
1
254
254
255
255
91
1
254
254
255
255
87
1
254
254
255
255
75
1
254
254
255
255
65
1
254
254
255
255
85
1
254
254
255
255
92
1
254
254
255
255
88
1
254
254
255
255
86
1
254
254
255
255
87
1
254
254
255
255
92
1
254
254
255
255
91
1
254
254
255
255
90
1
254
254
255
255
89
1
254
254
255
255
90
1
254
254
255
255
88
1
254
254
255
255
86
1
254
254
255
255
75
1
254
254
255
255
84
1
254
254
255
255
86
1
254
254
255
255
80
1
254
254
255
255
86
1
254
254
255
255
91
1
254
254
255
255
91
1
254
254
255
255
89
1
254
254
255
255
87
1
254
254
255
255
89
1
254
254
255
255
89
1
254
254
255
255
89
1
254
254
255
255
86
1
254
254
255
255
93
1
254
254
255
255
90
1
254
254
255
255
86
1
254
254
255
255
78
1
254
254
255
255
85
1
254
254
255
255
88
1
254
254
255
255
86
1
254
254
255
255
86
1
254
254
255
255
79
1
254
254
255
255
82
1
254
254
255
255
87
1
254
254
255
255
90
1
254
254
255
255
87
1
254
254
255
255
86
1
254
254
255
255
86
1
254
254
255
255
86
1
254
254
255
255
86
1
254
254
255
255
86
1
254
254
255
255
87
1
254
254
255
255
77
1
254
254
255
255
88
1
254
254
255
255
97
1
254
254
255
255
92
1
254
254
255
255
90
1
254
254
255
255
90
1
254
254
255
255
93
1
254
254
255
255
88
1
254
254
255
255
85
1
254
254
255
255
87
1
254
254
255
255
83
1
254
254
255
255
78
1
254
254
255
255
86
1
254
254
255
255
81
1
254
254
255
255
84
1
254
254
255
255
87
1
254
254
255
255
82
1
254
254
255
255
87
1
254
254
255
255
89
1
254
254
255
255
86
1
254
254
255
255
86
1
254
254
255
255
91
1
254
254
255
255
89
1
254
254
11
87
11
255
255
89
1
254
254
255
255
84
1
254
254
255
255
88
1
254
254
255
255
90
1
254
254
255
255
95
1
254
254
255
255
89
1
254
254
255
255
89
1
254
254
255
255
56
1
254
254
255
255
66
1
254
254
255
255
84
1
254
254
255
255
88
1
254
254
255
255
56
1
254
254
255
255
76
1
254
254
255
255
76
1
254
254
255
255
79
1
254
254
255
255
84
1
254
254
255
255
89
1
254
254
255
255
86
1
254
254
255
255
85
1
254
254
255
255
74
1
254
254
255
255
86
1
254
254
255
255
91
1
254
254
255
255
90
1
254
254
255
255
86
1
254
254
255
255
85
1
254
254
255
255
87
1
254
254
255
255
84
1
254
254
255
255
85
1
254
254
255
255
86
1
254
254
255
255
87
1
254
254
255
255
87
1
254
254
255
255
83
1
254
254
255
255
83
1
254
254
255
255
84
1
254
254
255
255
89
1
254
254
255
255
93
1
254
254
255
255
88
1
254
254
255
255
93
1
254
254
255
255
91
1
254
254
255
255
87
1
254
254
255
255
80
1
254
254
255
255
82
1
254
254
255
255
85
1
254
254
255
255
83
1
254
254
255
255
85
1
254
254
255
255
73
1
254
254
255
255
77
1
254
254
255
255
84
1
254
254
255
255
99
1
254
254
255
255
97
1
254
254
255
255
89
1
254
254
255
255
75
1
254
254
255
255
83
1
254
254
255
255
90
1
254
254
255
255
92
1
254
254
255
255
87
1
254
254
255
255
85
1
254
254
255
255
85
1
254
254
255
255
86
1
254
254
255
255
29
1
254
254
255
255
70
1
254
254
255
255
92
1
254
254
255
255
90
1
254
254
255
255
86
1
254
254
255
255
79
1
254
254
255
255
81
1
254
254
255
255
85
1
254
254
255
255
87
1
254
254
255
255
85
1
254
254
255
255
85
1
254
254
255
255
83
1
254
254
255
255
86
1
254
254
255
255
84
1
254
254
255
255
84
1
254
254
255
255
85
1
254
254
255
255
79
1
254
254
255
255
84
1
254
254
255
255
98
1
254
254
255
255
90
1
254
254
255
255
87
1
254
254
255
255
84
1
254
254
255
255
85
1
254
254
255
255
86
1
254
254
255
255
82
1
254
254
255
255
86
1
254
254
255
255
83
1
254
254
255
255
86
1
254
254
255
255
86
1
254
254
255
255
55
1
254
254
255
255
74
1
254
254
255
255
90
1
254
254
255
255
85
1
254
254
255
255
86
1
254
254
255
255
86
1
254
254
255
255
89
1
254
254
255
255
85
1
254
254
255
255
89
1
254
254
255
255
87
1
254
254
255
255
85
1
254
254
255
255
95
1
254
254
255
255
87
1
254
254
255
255
87
1
254
254
255
255
93
1
254
254
255
255
95
1
254
254
255
255
76
1
254
254
255
255
80
1
254
254
255
255
87
1
254
254
255
255
3
1
254
254
255
255
64
1
254
254
255
255
97
1
254
254
255
255
95
1
254
254
255
255
86
1
254
254
255
255
88
1
254
254
255
255
86
1
254
254
255
255
86
1
254
254
255
255
78
1
254
254
255
255
91
1
254
254
255
255
71
1
254
254
255
255
78
1
254
254
255
255
85
1
254
254
255
255
77
1
254
254
255
255
81
1
254
254
255
255
85
1
254
254
255
255
87
1
254
254
255
255
86
1
254
254
255
255
82
1
254
254
255
255
75
1
254
254
255
255
84
1
254
254
255
255
80
1
254
254
255
255
82
1
254
254
255
255
85
1
254
254
255
255
86
1
254
254
255
255
86
1
254
254
255
255
86
1
254
254
255
255
83
1
254
254
255
255
86
1
254
254
255
255
52
1
254
254
255
255
66
1
254
254
255
255
86
1
254
254
255
255
91
1
254
254
255
255
87
1
254
254
255
255
84
1
254
254
255
255
85
1
254
254
255
255
92
1
254
254
255
255
85
1
254
254
255
255
84
1
254
254
255
255
86
1
254
254
255
255
82
1
254
254
255
255
85
1
254
254
48
55
52
51
49
48
255
255
91
1
254
254
255
255
88
1
254
254
255
255
93
1
254
254
255
255
83
1
254
254
255
255
83
1
254
254
255
255
91
1
254
254
11
87
11
255
255
72
1
254
254
255
255
80
1
254
254
255
255
85
1
254
254
255
255
91
1
254
254
255
255
86
1
254
254
255
255
83
1
254
254
255
255
82
1
254
254
255
255
88
1
254
254
255
255
68
1
254
254
255
255
67
1
254
254
255
255
83
1
254
254
255
255
89
1
254
254
255
255
96
1
254
254
255
255
100
1
254
254
255
255
94
1
254
254
255
255
94
1
254
254
255
255
81
1
254
254
255
255
77
1
254
254
255
255
86
1
254
254
255
255
84
1
254
254
255
255
85
1
254
254
255
255
90
1
254
254
255
255
93
1
254
254
255
255
91
1
254
254
255
255
89
1
254
254
255
255
92
1
254
254
255
255
91
1
254
254
255
255
89
1
254
254
255
255
90
1
254
254
255
255
89
1
254
254
255
255
91
1
254
254
255
255
91
1
254
254
255
255
90
1
254
254
255
255
93
1
254
254
255
255
92
1
254
254
255
255
93
1
254
254
255
255
92
1
254
254
255
255
91
1
254
254
255
255
94
1
254
254
255
255
92
1
254
254
255
255
90
1
254
254
255
255
91
1
254
254
255
255
90
1
254
254
255
255
85
1
254
254
255
255
85
1
254
254
255
255
89
1
254
254
255
255
91
1
254
254
255
255
88
1
254
254
255
255
90
1
254
254
255
255
74
1
254
254
255
255
83
1
254
254
255
255
105
1
254
254
255
255
101
1
254
254
255
255
92
1
254
254
255
255
85
1
254
254
255
255
84
1
254
254
255
255
90
1
254
254
255
255
81
1
254
254
255
255
86
1
254
254
255
255
87
1
254
254
255
255
90
1
254
254
255
255
89
1
254
254
255
255
93
1
254
254
255
255
91
1
254
254
255
255
89
1
254
254
255
255
81
1
254
254
255
255
87
1
254
254
255
255
58
1
254
254
255
255
66
1
254
254
255
255
85
1
254
254
255
255
93
1
254
254
255
255
90
1
254
254
255
255
89
1
254
254
255
255
72
1
254
254
255
255
83
1
254
254
255
255
65
1
254
254
255
255
72
1
254
254
255
255
86
1
254
254
255
255
88
1
254
254
255
255
87
1
254
254
255
255
88
1
254
254
255
255
89
1
254
254
255
255
89
1
254
254
255
255
95
1
254
254
255
255
88
1
254
254
255
255
88
1
254
254
255
255
89
1
254
254
255
255
89
1
254
254
255
255
87
1
254
254
255
255
75
1
254
254
255
255
83
1
254
254
255
255
64
1
254
254
255
255
73
1
254
254
255
255
84
1
254
254
255
255
84
1
254
254
255
255
83
1
254
254
255
255
89
1
254
254
255
255
91
1
254
254
255
255
88
1
254
254
255
255
90
1
254
254
255
255
92
1
254
254
255
255
88
1
254
254
255
255
91
1
254
254
255
255
89
1
254
254
255
255
87
1
254
254
255
255
83
1
254
254
255
255
86
1
254
254
255
255
100
1
254
254
255
255
92
1
254
254
255
255
90
1
254
254
255
255
87
1
254
254
255
255
87
1
254
254
255
255
88
1
254
254
255
255
88
1
254
254
255
255
88
1
254
254
255
255
71
1
254
254
255
255
73
1
254
254
255
255
86
1
254
254
255
255
93
1
254
254
255
255
89
1
254
254
255
255
86
1
254
254
255
255
88
1
254
254
255
255
87
1
254
254
255
255
79
1
254
254
255
255
84
1
254
254
255
255
83
1
254
254
255
255
91
1
254
254
255
255
87
1
254
254
255
255
86
1
254
254
255
255
85
1
254
254
255
255
85
1
254
254
255
255
88
1
254
254
255
255
87
1
254
254
255
255
86
1
254
254
255
255
75
1
254
254
255
255
79
1
254
254
255
255
84
1
254
254
255
255
89
1
254
254
255
255
86
1
254
254
255
255
80
1
254
254
255
255
83
1
254
254
255
255
85
1
254
254
255
255
87
1
254
254
255
255
88
1
254
254
255
255
86
1
254
254
255
255
78
1
254
254
255
255
84
1
254
254
255
255
87
1
254
254
255
255
85
1
254
254
255
255
86
1
254
254
255
255
72
1
254
254
255
255
79
1
254
254
255
255
87
1
254
254
255
255
84
1
254
254
255
255
85
1
254
254
255
255
80
1
254
254
255
255
79
1
254
254
255
255
85
1
254
254
255
255
87
1
254
254
255
255
86
1
254
254
255
255
87
1
254
254
255
255
83
1
254
254
255
255
86
1
254
254
11
87
11
255
255
84
1
254
254
255
255
88
1
254
254
255
255
83
1
254
254
255
255
87
1
254
254
255
255
87
1
254
254
255
255
88
1
254
254
255
255
85
1
254
254
255
255
86
1
254
254
255
255
85
1
254
254
255
255
83
1
254
254
255
255
84
1
254
254
255
255
88
1
254
254
255
255
81
1
254
254
255
255
83
1
254
254
255
255
85
1
254
254
255
255
89
1
254
254
255
255
85
1
254
254
255
255
86
1
254
254
255
255
89
1
254
254
255
255
90
1
254
254
255
255
89
1
254
254
255
255
93
1
254
254
255
255
91
1
254
254
255
255
89
1
254
254
255
255
93
1
254
254
255
255
89
1
254
254
255
255
86
1
254
254
255
255
84
1
254
254
255
255
87
1
254
254
255
255
94
1
254
254
255
255
90
1
254
254
255
255
89
1
254
254
255
255
88
1
254
254
255
255
88
1
254
254
255
255
74
1
254
254
255
255
77
1
254
254
255
255
87
1
254
254
255
255
103
1
254
254
255
255
95
1
254
254
255
255
86
1
254
254
255
255
93
1
254
254
255
255
88
1
254
254
255
255
89
1
254
254
255
255
87
1
254
254
255
255
86
1
254
254
255
255
93
1
254
254
255
255
93
1
254
254
255
255
87
1
254
254
255
255
75
1
254
254
255
255
81
1
254
254
255
255
86
1
254
254
255
255
85
1
254
254
255
255
86
1
254
254
255
255
86
1
254
254
255
255
86
1
254
254
255
255
87
1
254
254
255
255
77
1
254
254
255
255
83
1
254
254
255
255
88
1
254
254
255
255
75
1
254
254
255
255
85
1
254
254
255
255
88
1
254
254
255
255
87
1
254
254
255
255
86
1
254
254
255
255
84
1
254
254
255
255
86
1
254
254
255
255
35
1
254
254
255
255
42
1
254
254
255
255
78
1
254
254
255
255
100
1
254
254
255
255
94
1
254
254
255
255
87
1
254
254
255
255
92
1
254
254
255
255
87
1
254
254
255
255
78
1
254
254
255
255
79
1
254
254
255
255
86
1
254
254
255
255
78
1
254
254
255
255
75
1
254
254
255
255
87
1
254
254
255
255
96
1
254
254
255
255
90
1
254
254
255
255
85
1
254
254
255
255
90
1
254
254
255
255
91
1
254
254
255
255
89
1
254
254
255
255
88
1
254
254
255
255
87
1
254
254
255
255
95
1
254
254
255
255
90
1
254
254
255
255
84
1
254
254
255
255
85
1
254
254
255
255
87
1
254
254
255
255
90
1
254
254
255
255
89
1
254
254
255
255
87
1
254
254
255
255
87
1
254
254
255
255
91
1
254
254
255
255
89
1
254
254
255
255
87
1
254
254
255
255
89
1
254
254
255
255
75
1
254
254
255
255
74
1
254
254
255
255
88
1
254
254
255
255
83
1
254
254
255
255
86
1
254
254
255
255
102
1
254
254
255
255
94
1
254
254
255
255
91
1
254
254
255
255
88
1
254
254
255
255
89
1
254
254
255
255
90
1
254
254
255
255
87
1
254
254
255
255
89
1
254
254
255
255
75
1
254
254
255
255
77
1
254
254
255
255
89
1
254
254
255
255
88
1
254
254
255
255
88
1
254
254
255
255
91
1
254
254
255
255
83
1
254
254
255
255
88
1
254
254
255
255
72
1
254
254
255
255
76
1
254
254
255
255
88
1
254
254
255
255
95
1
254
254
255
255
93
1
254
254
255
255
90
1
254
254
255
255
87
1
254
254
255
255
89
1
254
254
255
255
60
1
254
254
255
255
69
1
254
254
255
255
86
1
254
254
255
255
66
1
254
254
255
255
67
1
254
254
255
255
90
1
254
254
255
255
101
1
254
254
255
255
92
1
254
254
255
255
91
1
254
254
255
255
90
1
254
254
255
255
90
1
254
254
255
255
92
1
254
254
255
255
91
1
254
254
255
255
89
1
254
254
255
255
99
1
254
254
255
255
94
1
254
254
255
255
91
1
254
254
255
255
89
1
254
254
255
255
90
1
254
254
255
255
92
1
254
254
255
255
91
1
254
254
48
55
52
51
49
48
255
255
88
1
254
254
255
255
88
1
254
254
255
255
87
1
254
254
255
255
85
1
254
254
11
87
11
255
255
85
1
254
254
255
255
87
1
254
254
255
255
93
1
254
254
255
255
90
1
254
254
255
255
90
1
254
254
255
255
91
1
254
254
255
255
86
1
254
254
255
255
88
1
254
254
255
255
90
1
254
254
255
255
87
1
254
254
255
255
91
1
254
254
255
255
91
1
254
254
255
255
92
1
254
254
255
255
87
1
254
254
255
255
85
1
254
254
255
255
88
1
254
254
255
255
81
1
254
254
255
255
81
1
254
254
255
255
85
1
254
254
255
255
89
1
254
254
255
255
81
1
254
254
255
255
82
1
254
254
255
255
87
1
254
254
255
255
92
1
254
254
255
255
90
1
254
254
255
255
91
1
254
254
255
255
87
1
254
254
255
255
88
1
254
254
255
255
86
1
254
254
255
255
87
1
254
254
255
255
82
1
254
254
255
255
84
1
254
254
255
255
87
1
254
254
255
255
87
1
254
254
255
255
87
1
254
254
255
255
87
1
254
254
255
255
86
1
254
254
255
255
90
1
254
254
255
255
95
1
254
254
255
255
89
1
254
254
255
255
86
1
254
254
255
255
89
1
254
254
255
255
87
1
254
254
255
255
89
1
254
254
255
255
92
1
254
254
255
255
87
1
254
254
255
255
86
1
254
254
255
255
86
1
254
254
255
255
87
1
254
254
255
255
88
1
254
254
255
255
87
1
254
254
255
255
89
1
254
254
255
255
88
1
254
254
255
255
88
1
254
254
255
255
75
1
254
254
255
255
81
1
254
254
255
255
87
1
254
254
255
255
85
1
254
254
255
255
86
1
254
254
255
255
88
1
254
254
255
255
86
1
254
254
255
255
86
1
254
254
255
255
81
1
254
254
255
255
84
1
254
254
255
255
87
1
254
254
255
255
93
1
254
254
255
255
89
1
254
254
255
255
87
1
254
254
255
255
86
1
254
254
255
255
87
1
254
254
255
255
94
1
254
254
255
255
90
1
254
254
255
255
87
1
254
254
255
255
76
1
254
254
255
255
85
1
254
254
255
255
85
1
254
254
255
255
82
1
254
254
255
255
86
1
254
254
255
255
89
1
254
254
255
255
87
1
254
254
255
255
89
1
254
254
255
255
88
1
254
254
255
255
88
1
254
254
255
255
84
1
254
254
255
255
82
1
254
254
255
255
87
1
254
254
255
255
84
1
254
254
255
255
85
1
254
254
255
255
87
1
254
254
255
255
94
1
254
254
255
255
88
1
254
254
255
255
83
1
254
254
255
255
84
1
254
254
255
255
89
1
254
254
255
255
91
1
254
254
255
255
88
1
254
254
255
255
87
1
254
254
255
255
87
1
254
254
255
255
87
1
254
254
255
255
87
1
254
254
255
255
86
1
254
254
255
255
87
1
254
254
255
255
81
1
254
254
255
255
85
1
254
254
255
255
89
1
254
254
255
255
84
1
254
254
255
255
88
1
254
254
255
255
92
1
254
254
255
255
90
1
254
254
255
255
89
1
254
254
255
255
85
1
254
254
255
255
87
1
254
254
255
255
89
1
254
254
255
255
86
1
254
254
255
255
89
1
254
254
255
255
88
1
254
254
255
255
86
1
254
254
255
255
89
1
254
254
255
255
89
1
254
254
255
255
89
1
254
254
255
255
95
1
254
254
255
255
96
1
254
254
255
255
90
1
254
254
255
255
77
1
254
254
255
255
80
1
254
254
255
255
88
1
254
254
255
255
85
1
254
254
255
255
87
1
254
254
255
255
90
1
254
254
255
255
89
1
254
254
255
255
91
1
254
254
255
255
86
1
254
254
255
255
85
1
254
254
255
255
90
1
254
254
255
255
83
1
254
254
255
255
86
1
254
254
255
255
88
1
254
254
255
255
91
1
254
254
255
255
89
1
254
254
255
255
81
1
254
254
255
255
81
1
254
254
255
255
87
1
254
254
255
255
89
1
254
254
255
255
87
1
254
254
255
255
87
1
254
254
255
255
87
1
254
254
255
255
86
1
254
254
255
255
86
1
254
254
255
255
85
1
254
254
255
255
87
1
254
254
255
255
91
1
254
254
255
255
87
1
254
254
255
255
79
1
254
254
255
255
79
1
254
254
255
255
85
1
254
254
255
255
89
1
254
254
255
255
87
1
254
254
255
255
86
1
254
254
255
255
85
1
254
254
255
255
86
1
254
254
255
255
84
1
254
254
255
255
92
1
254
254
255
255
88
1
254
254
255
255
91
1
254
254
255
255
88
1
254
254
11
87
11
255
255
86
1
254
254
255
255
86
1
254
254
255
255
86
1
254
254
255
255
87
1
254
254
255
255
82
1
254
254
255
255
84
1
254
254
255
255
88
1
254
254
255
255
86
1
254
254
255
255
80
1
254
254
255
255
90
1
254
254
255
255
90
1
254
254
255
255
82
1
254
254
255
255
83
1
254
254
255
255
85
1
254
254
255
255
85
1
254
254
255
255
86
1
254
254
255
255
72
1
254
254
255
255
80
1
254
254
255
255
85
1
254
254
255
255
93
1
254
254
255
255
88
1
254
254
255
255
86
1
254
254
255
255
78
1
254
254
255
255
85
1
254
254
255
255
89
1
254
254
255
255
90
1
254
254
255
255
86
1
254
254
255
255
84
1
254
254
255
255
85
1
254
254
255
255
85
1
254
254
255
255
87
1
254
254
255
255
86
1
254
254
255
255
88
1
254
254
255
255
87
1
254
254
255
255
86
1
254
254
255
255
88
1
254
254
255
255
90
1
254
254
255
255
87
1
254
254
255
255
89
1
254
254
255
255
94
1
254
254
255
255
87
1
254
254
255
255
85
1
254
254
255
255
86
1
254
254
255
255
89
1
254
254
255
255
87
1
254
254
255
255
87
1
254
254
255
255
90
1
254
254
255
255
87
1
254
254
255
255
87
1
254
254
255
255
85
1
254
254
255
255
86
1
254
254
255
255
93
1
254
254
255
255
93
1
254
254
255
255
94
1
254
254
255
255
87
1
254
254
255
255
87
1
254
254
255
255
89
1
254
254
255
255
87
1
254
254
255
255
86
1
254
254
255
255
88
1
254
254
255
255
87
1
254
254
255
255
86
1
254
254
255
255
90
1
254
254
255
255
94
1
254
254
255
255
88
1
254
254
255
255
91
1
254
254
255
255
86
1
254
254
255
255
92
1
254
254
255
255
86
1
254
254
255
255
86
1
254
254
255
255
85
1
254
254
255
255
86
1
254
254
255
255
89
1
254
254
255
255
88
1
254
254
255
255
87
1
254
254
255
255
77
1
254
254
255
255
81
1
254
254
255
255
92
1
254
254
255
255
94
1
254
254
255
255
87
1
254
254
255
255
88
1
254
254
255
255
87
1
254
254
255
255
86
1
254
254
255
255
86
1
254
254
255
255
86
1
254
254
255
255
86
1
254
254
255
255
80
1
254
254
255
255
85
1
254
254
255
255
89
1
254
254
255
255
88
1
254
254
255
255
87
1
254
254
255
255
87
1
254
254
255
255
92
1
254
254
255
255
92
1
254
254
255
255
92
1
254
254
255
255
86
1
254
254
255
255
86
1
254
254
255
255
84
1
254
254
255
255
86
1
254
254
255
255
87
1
254
254
255
255
87
1
254
254
255
255
87
1
254
254
255
255
85
1
254
254
255
255
87
1
254
254
255
255
86
1
254
254
255
255
84
1
254
254
255
255
86
1
254
254
255
255
93
1
254
254
255
255
89
1
254
254
255
255
86
1
254
254
255
255
85
1
254
254
255
255
86
1
254
254
255
255
88
1
254
254
255
255
87
1
254
254
255
255
87
1
254
254
255
255
81
1
254
254
255
255
84
1
254
254
255
255
87
1
254
254
255
255
90
1
254
254
255
255
90
1
254
254
255
255
90
1
254
254
255
255
86
1
254
254
255
255
86
1
254
254
255
255
88
1
254
254
255
255
87
1
254
254
255
255
86
1
254
254
255
255
77
1
254
254
255
255
84
1
254
254
255
255
89
1
254
254
255
255
87
1
254
254
255
255
86
1
254
254
255
255
86
1
254
254
255
255
89
1
254
254
255
255
89
1
254
254
255
255
90
1
254
254
255
255
89
1
254
254
255
255
89
1
254
254
255
255
88
1
254
254
255
255
86
1
254
254
255
255
65
1
254
254
255
255
77
1
254
254
255
255
88
1
254
254
255
255
88
1
254
254
255
255
87
1
254
254
255
255
87
1
254
254
255
255
86
1
254
254
255
255
86
1
254
254
255
255
85
1
254
254
255
255
85
1
254
254
255
255
87
1
254
254
48
55
52
51
49
48
255
255
83
1
254
254
255
255
86
1
254
254
255
255
87
1
254
254
255
255
85
1
254
254
11
87
11
255
255
87
1
254
254
255
255
88
1
254
254
255
255
87
1
254
254
255
255
87
1
254
254
255
255
88
1
254
254
255
255
92
1
254
254
255
255
88
1
254
254
255
255
87
1
254
254
255
255
83
1
254
254
255
255
81
1
254
254
255
255
84
1
254
254
255
255
85
1
254
254
255
255
60
1
254
254
255
255
48
1
254
254
255
255
69
1
254
254
255
255
86
1
254
254
255
255
74
1
254
254
255
255
79
1
254
254
255
255
85
1
254
254
255
255
91
1
254
254
255
255
87
1
254
254
255
255
89
1
254
254
255
255
86
1
254
254
255
255
87
1
254
254
255
255
88
1
254
254
255
255
88
1
254
254
255
255
90
1
254
254
255
255
89
1
254
254
255
255
86
1
254
254
255
255
88
1
254
254
255
255
86
1
254
254
255
255
85
1
254
254
255
255
85
1
254
254
255
255
89
1
254
254
255
255
87
1
254
254
255
255
86
1
254
254
255
255
84
1
254
254
255
255
91
1
254
254
255
255
88
1
254
254
255
255
86
1
254
254
255
255
85
1
254
254
255
255
86
1
254
254
255
255
73
1
254
254
255
255
75
1
254
254
255
255
86
1
254
254
255
255
92
1
254
254
255
255
88
1
254
254
255
255
93
1
254
254
255
255
92
1
254
254
255
255
87
1
254
254
255
255
84
1
254
254
255
255
84
1
254
254
255
255
86
1
254
254
255
255
88
1
254
254
255
255
86
1
254
254
255
255
92
1
254
254
255
255
93
1
254
254
255
255
87
1
254
254
255
255
95
1
254
254
255
255
87
1
254
254
255
255
85
1
254
254
255
255
96
1
254
254
255
255
89
1
254
254
255
255
89
1
254
254
255
255
89
1
254
254
255
255
86
1
254
254
255
255
77
1
254
254
255
255
81
1
254
254
255
255
87
1
254
254
255
255
86
1
254
254
255
255
86
1
254
254
255
255
87
1
254
254
255
255
92
1
254
254
255
255
94
1
254
254
255
255
89
1
254
254
255
255
87
1
254
254
255
255
87
1
254
254
255
255
89
1
254
254
255
255
87
1
254
254
255
255
77
1
254
254
255
255
78
1
254
254
255
255
86
1
254
254
255
255
89
1
254
254
255
255
87
1
254
254
255
255
86
1
254
254
255
255
83
1
254
254
255
255
86
1
254
254
255
255
93
1
254
254
255
255
91
1
254
254
255
255
89
1
254
254
255
255
86
1
254
254
255
255
86
1
254
254
255
255
85
1
254
254
255
255
99
1
254
254
255
255
90
1
254
254
255
255
85
1
254
254
255
255
85
1
254
254
255
255
86
1
254
254
255
255
82
1
254
254
255
255
83
1
254
254
255
255
93
1
254
254
255
255
93
1
254
254
255
255
88
1
254
254
255
255
99
1
254
254
255
255
93
1
254
254
255
255
87
1
254
254
255
255
84
1
254
254
255
255
85
1
254
254
255
255
86
1
254
254
255
255
87
1
254
254
255
255
85
1
254
254
255
255
87
1
254
254
255
255
85
1
254
254
255
255
93
1
254
254
255
255
90
1
254
254
255
255
86
1
254
254
255
255
87
1
254
254
255
255
81
1
254
254
255
255
85
1
254
254
255
255
87
1
254
254
255
255
88
1
254
254
255
255
87
1
254
254
255
255
82
1
254
254
255
255
84
1
254
254
255
255
86
1
254
254
255
255
84
1
254
254
255
255
86
1
254
254
255
255
72
1
254
254
255
255
82
1
254
254
255
255
87
1
254
254
255
255
82
1
254
254
255
255
83
1
254
254
255
255
87
1
254
254
255
255
85
1
254
254
255
255
86
1
254
254
255
255
87
1
254
254
255
255
87
1
254
254
255
255
87
1
254
254
255
255
87
1
254
254
255
255
85
1
254
254
255
255
86
1
254
254
255
255
96
1
254
254
255
255
93
1
254
254
255
255
91
1
254
254
255
255
87
1
254
254
255
255
86
1
254
254
255
255
79
1
254
254
255
255
83
1
254
254
255
255
87
1
254
254
255
255
86
1
254
254
255
255
86
1
254
254
255
255
87
1
254
254
255
255
87
1
254
254
255
255
86
1
254
254
255
255
88
1
254
254
255
255
87
1
254
254
255
255
86
1
254
254
255
255
89
1
254
254
255
255
87
1
254
254
255
255
87
1
254
254
255
255
85
1
254
254
255
255
86
1
254
254
255
255
89
1
254
254
255
255
88
1
254
254
255
255
86
1
254
254
11
87
11
255
255
89
1
254
254
255
255
87
1
254
254
255
255
86
1
254
254
255
255
93
1
254
254
255
255
88
1
254
254
255
255
87
1
254
254
255
255
89
1
254
254
255
255
90
1
254
254
255
255
85
1
254
254
255
255
82
1
254
254
255
255
88
1
254
254
255
255
92
1
254
254
255
255
97
1
254
254
255
255
96
1
254
254
255
255
92
1
254
254
255
255
71
1
254
254
255
255
73
1
254
254
255
255
91
1
254
254
255
255
94
1
254
254
255
255
91
1
254
254
255
255
86
1
254
254
255
255
87
1
254
254
255
255
91
1
254
254
255
255
87
1
254
254
255
255
86
1
254
254
255
255
90
1
254
254
255
255
89
1
254
254
255
255
90
1
254
254
255
255
85
1
254
254
255
255
82
1
254
254
255
255
89
1
254
254
255
255
92
1
254
254
255
255
91
1
254
254
255
255
90
1
254
254
255
255
90
1
254
254
255
255
90
1
254
254
255
255
87
1
254
254
255
255
86
1
254
254
255
255
90
1
254
254
255
255
93
1
254
254
255
255
91
1
254
254
255
255
90
1
254
254
255
255
84
1
254
254
255
255
88
1
254
254
255
255
93
1
254
254
255
255
89
1
254
254
255
255
90
1
254
254
255
255
91
1
254
254
255
255
90
1
254
254
255
255
90
1
254
254
255
255
93
1
254
254
255
255
90
1
254
254
255
255
89
1
254
254
255
255
92
1
254
254
255
255
89
1
254
254
255
255
79
1
254
254
255
255
81
1
254
254
255
255
89
1
254
254
255
255
90
1
254
254
255
255
90
1
254
254
255
255
90
1
254
254
255
255
89
1
254
254
255
255
89
1
254
254
255
255
91
1
254
254
255
255
90
1
254
254
255
255
88
1
254
254
255
255
90
1
254
254
255
255
89
1
254
254
255
255
86
1
254
254
255
255
86
1
254
254
255
255
89
1
254
254
255
255
90
1
254
254
255
255
89
1
254
254
255
255
90
1
254
254
255
255
90
1
254
254
255
255
89
1
254
254
255
255
84
1
254
254
255
255
87
1
254
254
255
255
89
1
254
254
255
255
93
1
254
254
255
255
91
1
254
254
255
255
89
1
254
254
255
255
88
1
254
254
255
255
89
1
254
254
255
255
77
1
254
254
255
255
83
1
254
254
255
255
88
1
254
254
255
255
85
1
254
254
255
255
83
1
254
254
255
255
88
1
254
254
255
255
87
1
254
254
255
255
88
1
254
254
255
255
90
1
254
254
255
255
88
1
254
254
255
255
87
1
254
254
255
255
83
1
254
254
255
255
84
1
254
254
255
255
88
1
254
254
255
255
89
1
254
254
255
255
89
1
254
254
255
255
92
1
254
254
255
255
87
1
254
254
255
255
89
1
254
254
255
255
89
1
254
254
255
255
88
1
254
254
255
255
87
1
254
254
255
255
91
1
254
254
255
255
88
1
254
254
255
255
83
1
254
254
255
255
82
1
254
254
255
255
87
1
254
254
255
255
88
1
254
254
255
255
87
1
254
254
255
255
89
1
254
254
255
255
88
1
254
254
255
255
88
1
254
254
255
255
87
1
254
254
255
255
89
1
254
254
255
255
87
1
254
254
255
255
86
1
254
254
255
255
85
1
254
254
255
255
87
1
254
254
255
255
96
1
254
254
255
255
90
1
254
254
255
255
85
1
254
254
255
255
86
1
254
254
255
255
86
1
254
254
255
255
90
1
254
254
255
255
88
1
254
254
255
255
86
1
254
254
255
255
90
1
254
254
255
255
85
1
254
254
255
255
89
1
254
254
255
255
86
1
254
254
255
255
85
1
254
254
255
255
83
1
254
254
255
255
83
1
254
254
255
255
86
1
254
254
255
255
88
1
254
254
255
255
86
1
254
254
255
255
84
1
254
254
255
255
85
1
254
254
255
255
86
1
254
254
255
255
86
1
254
254
255
255
86
1
254
254
255
255
86
1
254
254
255
255
89
1
254
254
255
255
85
1
254
254
48
55
52
51
49
48
255
255
88
1
254
254
255
255
90
1
254
254
255
255
87
1
254
254
255
255
90
1
254
254
255
255
89
1
254
254
255
255
87
1
254
254
255
255
84
1
254
254
11
87
11
255
255
84
1
254
254
255
255
89
1
254
254
255
255
88
1
254
254
255
255
84
1
254
254
255
255
89
1
254
254
255
255
87
1
254
254
255
255
87
1
254
254
255
255
85
1
254
254
255
255
89
1
254
254
255
255
87
1
254
254
255
255
90
1
254
254
255
255
84
1
254
254
255
255
91
1
254
254
255
255
90
1
254
254
255
255
86
1
254
254
255
255
90
1
254
254
255
255
87
1
254
254
255
255
88
1
254
254
255
255
89
1
254
254
255
255
87
1
254
254
255
255
87
1
254
254
255
255
89
1
254
254
255
255
89
1
254
254
255
255
88
1
254
254
255
255
85
1
254
254
255
255
89
1
254
254
255
255
91
1
254
254
255
255
88
1
254
254
255
255
89
1
254
254
255
255
87
1
254
254
255
255
87
1
254
254
255
255
90
1
254
254
255
255
95
1
254
254
255
255
89
1
254
254
255
255
89
1
254
254
255
255
84
1
254
254
255
255
87
1
254
254
255
255
87
1
254
254
255
255
84
1
254
254
255
255
87
1
254
254
255
255
86
1
254
254
255
255
88
1
254
254
255
255
89
1
254
254
255
255
87
1
254
254
255
255
87
1
254
254
255
255
87
1
254
254
255
255
86
1
254
254
255
255
87
1
254
254
255
255
86
1
254
254
255
255
86
1
254
254
255
255
87
1
254
254
255
255
86
1
254
254
255
255
87
1
254
254
255
255
91
1
254
254
255
255
89
1
254
254
255
255
87
1
254
254
255
255
75
1
254
254
255
255
82
1
254
254
255
255
87
1
254
254
255
255
84
1
254
254
255
255
86
1
254
254
255
255
83
1
254
254
255
255
82
1
254
254
255
255
87
1
254
254
255
255
92
1
254
254
255
255
88
1
254
254
255
255
90
1
254
254
255
255
89
1
254
254
255
255
87
1
254
254
255
255
85
1
254
254
255
255
82
1
254
254
255
255
89
1
254
254
255
255
92
1
254
254
255
255
90
1
254
254
255
255
86
1
254
254
255
255
86
1
254
254
255
255
87
1
254
254
255
255
87
1
254
254
255
255
86
1
254
254
255
255
87
1
254
254
255
255
83
1
254
254
255
255
86
1
254
254
255
255
89
1
254
254
255
255
87
1
254
254
255
255
88
1
254
254
255
255
77
1
254
254
255
255
81
1
254
254
255
255
87
1
254
254
255
255
90
1
254
254
255
255
88
1
254
254
255
255
87
1
254
254
255
255
81
1
254
254
255
255
87
1
254
254
255
255
87
1
254
254
255
255
87
1
254
254
255
255
89
1
254
254
255
255
88
1
254
254
255
255
87
1
254
254
255
255
87
1
254
254
255
255
83
1
254
254
255
255
87
1
254
254
255
255
91
1
254
254
255
255
90
1
254
254
255
255
88
1
254
254
255
255
83
1
254
254
255
255
86
1
254
254
255
255
83
1
254
254
255
255
86
1
254
254
255
255
90
1
254
254
255
255
93
1
254
254
255
255
90
1
254
254
255
255
90
1
254
254
255
255
88
1
254
254
255
255
89
1
254
254
255
255
90
1
254
254
255
255
89
1
254
254
255
255
89
1
254
254
255
255
93
1
254
254
255
255
92
1
254
254
255
255
91
1
254
254
255
255
88
1
254
254
255
255
90
1
254
254
255
255
95
1
254
254
255
255
89
1
254
254
255
255
91
1
254
254
255
255
95
1
254
254
255
255
93
1
254
254
255
255
91
1
254
254
255
255
93
1
254
254
255
255
92
1
254
254
255
255
56
1
254
254
255
255
63
1
254
254
255
255
85
1
254
254
255
255
89
1
254
254
255
255
88
1
254
254
255
255
90
1
254
254
255
255
91
1
254
254
255
255
91
1
254
254
255
255
90
1
254
254
255
255
87
1
254
254
255
255
91
1
254
254
255
255
94
1
254
254
255
255
91
1
254
254
255
255
90
1
254
254
255
255
93
1
254
254
255
255
90
1
254
254
255
255
89
1
254
254
255
255
86
1
254
254
255
255
90
1
254
254
255
255
84
1
254
254
255
255
85
1
254
254
255
255
90
1
254
254
255
255
90
1
254
254
255
255
90
1
254
254
255
255
51
1
254
254
255
255
57
1
