254
254
255
255
93
1
254
254
255
255
92
1
254
254
255
255
90
1
254
254
255
255
89
1
254
254
255
255
92
1
254
254
255
255
95
1
254
254
255
255
134
1
254
254
255
255
178
1
254
254
255
255
211
1
254
254
255
255
137
1
254
254
255
255
89
1
254
254
255
255
42
1
254
254
255
255
17
1
254
254
255
255
30
1
254
254
255
255
56
1
254
254
255
255
77
1
254
254
255
255
75
1
254
254
255
255
77
1
254
254
255
255
74
1
254
254
255
255
74
1
254
254
255
255
78
1
254
254
255
255
81
1
254
254
255
255
77
1
254
254
255
255
79
1
254
254
255
255
77
1
254
254
255
255
77
1
254
254
255
255
78
1
254
254
255
255
80
1
254
254
255
255
76
1
254
254
255
255
76
1
254
254
255
255
74
1
254
254
255
255
75
1
254
254
255
255
76
1
254
254
255
255
71
1
254
254
255
255
67
1
254
254
255
255
65
1
254
254
255
255
65
1
254
254
255
255
67
1
254
254
255
255
71
1
254
254
255
255
70
1
254
254
255
255
78
1
254
254
255
255
79
1
254
254
255
255
84
1
254
254
255
255
91
1
254
254
255
255
102
1
254
254
255
255
102
1
254
254
255
255
104
1
254
254
255
255
108
1
254
254
255
255
109
1
254
254
255
255
110
1
254
254
255
255
109
1
254
254
255
255
109
1
254
254
255
255
105
1
254
254
255
255
109
1
254
254
255
255
106
1
254
254
255
255
111
1
254
254
255
255
105
1
254
254
255
255
106
1
254
254
255
255
104
1
254
254
255
255
105
1
254
254
255
255
101
1
254
254
255
255
103
1
254
254
255
255
91
1
254
254
255
255
95
1
254
254
255
255
91
1
254
254
255
255
95
1
254
254
255
255
94
1
254
254
255
255
101
1
254
254
255
255
116
1
254
254
255
255
129
1
254
254
255
255
147
1
254
254
255
255
158
1
254
254
255
255
153
1
254
254
255
255
132
1
254
254
255
255
106
1
254
254
255
255
85
1
254
254
255
255
66
1
254
254
255
255
67
1
254
254
255
255
67
1
254
254
255
255
65
1
254
254
255
255
64
1
254
254
255
255
63
1
254
254
255
255
60
1
254
254
255
255
76
1
254
254
11
0
11
53
0
53
255
255
189
1
254
254
255
255
147
1
254
254
255
255
63
1
254
254
255
255
18
1
254
254
255
255
246
0
254
254
255
255
5
1
254
254
255
255
30
1
254
254
255
255
55
1
254
254
255
255
57
1
254
254
255
255
52
1
254
254
255
255
54
1
254
254
255
255
55
1
254
254
255
255
60
1
254
254
255
255
57
1
254
254
255
255
60
1
254
254
255
255
58
1
254
254
255
255
61
1
254
254
255
255
61
1
254
254
255
255
64
1
254
254
255
255
60
1
254
254
255
255
64
1
254
254
255
255
63
1
254
254
255
255
64
1
254
254
255
255
63
1
254
254
255
255
67
1
254
254
255
255
62
1
254
254
255
255
61
1
254
254
255
255
55
1
254
254
255
255
54
1
254
254
255
255
59
1
254
254
255
255
56
1
254
254
255
255
57
1
254
254
255
255
58
1
254
254
255
255
60
1
254
254
255
255
65
1
254
254
255
255
75
1
254
254
255
255
78
1
254
254
255
255
83
1
254
254
255
255
84
1
254
254
255
255
86
1
254
254
255
255
91
1
254
254
255
255
92
1
254
254
255
255
91
1
254
254
255
255
92
1
254
254
255
255
90
1
254
254
255
255
89
1
254
254
255
255
90
1
254
254
255
255
89
1
254
254
255
255
90
1
254
254
255
255
87
1
254
254
255
255
88
1
254
254
255
255
88
1
254
254
255
255
92
1
254
254
255
255
82
1
254
254
255
255
86
1
254
254
255
255
83
1
254
254
255
255
81
1
254
254
255
255
82
1
254
254
255
255
86
1
254
254
255
255
85
1
254
254
255
255
96
1
254
254
255
255
114
1
254
254
255
255
125
1
254
254
255
255
146
1
254
254
255
255
152
1
254
254
255
255
144
1
254
254
255
255
119
1
254
254
255
255
93
1
254
254
255
255
73
1
254
254
255
255
63
1
254
254
255
255
58
1
254
254
255
255
60
1
254
254
255
255
58
1
254
254
255
255
60
1
254
254
255
255
56
1
254
254
255
255
60
1
254
254
255
255
74
1
254
254
255
255
125
1
254
254
255
255
175
1
254
254
255
255
183
1
254
254
255
255
82
1
254
254
255
255
6
1
254
254
255
255
221
0
254
254
255
255
252
0
254
254
255
255
30
1
254
254
255
255
53
1
254
254
255
255
57
1
254
254
255
255
58
1
254
254
255
255
57
1
254
254
48
55
57
51
48
48
255
255
69
1
254
254
255
255
68
1
254
254
255
255
68
1
254
254
255
255
71
1
254
254
255
255
71
1
254
254
255
255
76
1
254
254
255
255
80
1
254
254
255
255
83
1
254
254
255
255
80
1
254
254
255
255
83
1
254
254
255
255
83
1
254
254
255
255
86
1
254
254
255
255
80
1
254
254
255
255
83
1
254
254
255
255
80
1
254
254
255
255
81
1
254
254
255
255
80
1
254
254
255
255
89
1
254
254
255
255
85
1
254
254
255
255
93
1
254
254
255
255
97
1
254
254
255
255
103
1
254
254
255
255
108
1
254
254
255
255
122
1
254
254
255
255
124
1
254
254
255
255
127
1
254
254
255
255
133
1
254
254
255
255
130
1
254
254
255
255
136
1
254
254
11
0
11
53
0
53
255
255
134
1
254
254
255
255
143
1
254
254
255
255
140
1
254
254
255
255
145
1
254
254
255
255
140
1
254
254
255
255
140
1
254
254
255
255
141
1
254
254
255
255
148
1
254
254
255
255
145
1
254
254
255
255
144
1
254
254
255
255
140
1
254
254
255
255
140
1
254
254
255
255
143
1
254
254
255
255
141
1
254
254
255
255
139
1
254
254
255
255
139
1
254
254
255
255
143
1
254
254
255
255
158
1
254
254
255
255
179
1
254
254
255
255
192
1
254
254
255
255
212
1
254
254
255
255
211
1
254
254
255
255
199
1
254
254
255
255
175
1
254
254
255
255
156
1
254
254
255
255
129
1
254
254
255
255
120
1
254
254
255
255
121
1
254
254
255
255
117
1
254
254
255
255
120
1
254
254
255
255
117
1
254
254
255
255
117
1
254
254
255
255
110
1
254
254
255
255
131
1
254
254
255
255
187
1
254
254
255
255
250
1
254
254
255
255
236
1
254
254
255
255
129
1
254
254
255
255
48
1
254
254
255
255
21
1
254
254
255
255
52
1
254
254
255
255
89
1
254
254
255
255
101
1
254
254
255
255
102
1
254
254
255
255
102
1
254
254
255
255
104
1
254
254
255
255
105
1
254
254
255
255
104
1
254
254
255
255
102
1
254
254
255
255
101
1
254
254
255
255
103
1
254
254
255
255
103
1
254
254
255
255
107
1
254
254
255
255
103
1
254
254
255
255
106
1
254
254
255
255
102
1
254
254
255
255
104
1
254
254
255
255
104
1
254
254
255
255
106
1
254
254
255
255
97
1
254
254
255
255
96
1
254
254
255
255
91
1
254
254
255
255
90
1
254
254
255
255
87
1
254
254
255
255
88
1
254
254
255
255
83
1
254
254
255
255
83
1
254
254
255
255
82
1
254
254
255
255
84
1
254
254
255
255
90
1
254
254
255
255
93
1
254
254
255
255
98
1
254
254
255
255
101
1
254
254
255
255
102
1
254
254
255
255
103
1
254
254
255
255
104
1
254
254
255
255
105
1
254
254
255
255
103
1
254
254
255
255
107
1
254
254
255
255
103
1
254
254
255
255
103
1
254
254
255
255
97
1
254
254
255
255
99
1
254
254
255
255
96
1
254
254
255
255
95
1
254
254
255
255
91
1
254
254
255
255
96
1
254
254
255
255
87
1
254
254
255
255
89
1
254
254
255
255
88
1
254
254
255
255
87
1
254
254
255
255
80
1
254
254
255
255
85
1
254
254
255
255
79
1
254
254
255
255
76
1
254
254
255
255
73
1
254
254
255
255
75
1
254
254
255
255
73
1
254
254
255
255
91
1
254
254
255
255
104
1
254
254
255
255
113
1
254
254
255
255
133
1
254
254
255
255
141
1
254
254
255
255
136
1
254
254
255
255
107
1
254
254
255
255
83
1
254
254
255
255
65
1
254
254
255
255
51
1
254
254
255
255
48
1
254
254
255
255
53
1
254
254
255
255
48
1
254
254
255
255
48
1
254
254
255
255
45
1
254
254
255
255
42
1
254
254
255
255
63
1
254
254
255
255
116
1
254
254
255
255
158
1
254
254
255
255
166
1
254
254
255
255
66
1
254
254
255
255
18
1
254
254
255
255
232
0
254
254
11
0
11
53
0
53
255
255
23
1
254
254
255
255
42
1
254
254
255
255
39
1
254
254
255
255
41
1
254
254
255
255
45
1
254
254
255
255
43
1
254
254
255
255
47
1
254
254
255
255
51
1
254
254
255
255
53
1
254
254
255
255
50
1
254
254
255
255
52
1
254
254
255
255
54
1
254
254
255
255
58
1
254
254
255
255
56
1
254
254
255
255
60
1
254
254
255
255
60
1
254
254
255
255
63
1
254
254
255
255
61
1
254
254
255
255
61
1
254
254
255
255
56
1
254
254
255
255
57
1
254
254
255
255
56
1
254
254
255
255
54
1
254
254
255
255
53
1
254
254
255
255
56
1
254
254
255
255
57
1
254
254
255
255
56
1
254
254
255
255
64
1
254
254
255
255
68
1
254
254
255
255
78
1
254
254
255
255
80
1
254
254
255
255
89
1
254
254
255
255
91
1
254
254
255
255
95
1
254
254
255
255
92
1
254
254
255
255
95
1
254
254
255
255
92
1
254
254
255
255
94
1
254
254
255
255
95
1
254
254
255
255
95
1
254
254
255
255
96
1
254
254
255
255
98
1
254
254
255
255
92
1
254
254
255
255
92
1
254
254
255
255
88
1
254
254
255
255
91
1
254
254
255
255
91
1
254
254
255
255
88
1
254
254
255
255
85
1
254
254
255
255
86
1
254
254
255
255
83
1
254
254
255
255
83
1
254
254
255
255
84
1
254
254
255
255
82
1
254
254
255
255
80
1
254
254
255
255
87
1
254
254
255
255
103
1
254
254
255
255
118
1
254
254
255
255
137
1
254
254
255
255
154
1
254
254
255
255
146
1
254
254
255
255
130
1
254
254
255
255
98
1
254
254
255
255
87
1
254
254
255
255
65
1
254
254
255
255
57
1
254
254
255
255
53
1
254
254
255
255
56
1
254
254
255
255
54
1
254
254
255
255
58
1
254
254
255
255
49
1
254
254
255
255
58
1
254
254
255
255
88
1
254
254
255
255
142
1
254
254
255
255
180
1
254
254
255
255
122
1
254
254
255
255
42
1
254
254
255
255
245
0
254
254
255
255
235
0
254
254
255
255
5
1
254
254
255
255
34
1
254
254
255
255
52
1
254
254
255
255
50
1
254
254
255
255
48
1
254
254
255
255
47
1
254
254
255
255
52
1
254
254
255
255
55
1
254
254
255
255
54
1
254
254
48
55
57
50
57
48
255
255
60
1
254
254
255
255
63
1
254
254
255
255
62
1
254
254
255
255
63
1
254
254
255
255
62
1
254
254
255
255
64
1
254
254
255
255
66
1
254
254
255
255
70
1
254
254
255
255
64
1
254
254
255
255
63
1
254
254
255
255
62
1
254
254
255
255
61
1
254
254
255
255
62
1
254
254
255
255
61
1
254
254
255
255
65
1
254
254
255
255
65
1
254
254
255
255
70
1
254
254
255
255
76
1
254
254
255
255
86
1
254
254
255
255
88
1
254
254
255
255
94
1
254
254
255
255
101
1
254
254
255
255
102
1
254
254
255
255
102
1
254
254
255
255
107
1
254
254
255
255
104
1
254
254
255
255
104
1
254
254
255
255
107
1
254
254
255
255
108
1
254
254
255
255
109
1
254
254
11
0
11
53
0
53
255
255
108
1
254
254
255
255
113
1
254
254
255
255
107
1
254
254
255
255
111
1
254
254
255
255
106
1
254
254
255
255
107
1
254
254
255
255
105
1
254
254
255
255
109
1
254
254
255
255
101
1
254
254
255
255
101
1
254
254
255
255
101
1
254
254
255
255
103
1
254
254
255
255
103
1
254
254
255
255
104
1
254
254
255
255
103
1
254
254
255
255
104
1
254
254
255
255
114
1
254
254
255
255
132
1
254
254
255
255
148
1
254
254
255
255
163
1
254
254
255
255
181
1
254
254
255
255
171
1
254
254
255
255
151
1
254
254
255
255
124
1
254
254
255
255
112
1
254
254
255
255
95
1
254
254
255
255
89
1
254
254
255
255
89
1
254
254
255
255
90
1
254
254
255
255
90
1
254
254
255
255
91
1
254
254
255
255
87
1
254
254
255
255
98
1
254
254
255
255
143
1
254
254
255
255
198
1
254
254
255
255
237
1
254
254
255
255
144
1
254
254
255
255
64
1
254
254
255
255
6
1
254
254
255
255
26
1
254
254
255
255
53
1
254
254
255
255
83
1
254
254
255
255
89
1
254
254
255
255
89
1
254
254
255
255
89
1
254
254
255
255
91
1
254
254
255
255
95
1
254
254
255
255
97
1
254
254
255
255
99
1
254
254
255
255
99
1
254
254
255
255
100
1
254
254
255
255
100
1
254
254
255
255
108
1
254
254
255
255
103
1
254
254
255
255
108
1
254
254
255
255
102
1
254
254
255
255
109
1
254
254
255
255
110
1
254
254
255
255
116
1
254
254
255
255
110
1
254
254
255
255
112
1
254
254
255
255
105
1
254
254
255
255
105
1
254
254
255
255
104
1
254
254
255
255
109
1
254
254
255
255
106
1
254
254
255
255
109
1
254
254
255
255
107
1
254
254
255
255
112
1
254
254
255
255
121
1
254
254
255
255
127
1
254
254
255
255
130
1
254
254
255
255
133
1
254
254
255
255
136
1
254
254
255
255
141
1
254
254
255
255
146
1
254
254
255
255
142
1
254
254
255
255
140
1
254
254
255
255
143
1
254
254
255
255
140
1
254
254
255
255
142
1
254
254
255
255
146
1
254
254
255
255
143
1
254
254
255
255
142
1
254
254
255
255
140
1
254
254
255
255
141
1
254
254
255
255
144
1
254
254
255
255
139
1
254
254
255
255
139
1
254
254
255
255
135
1
254
254
255
255
133
1
254
254
255
255
133
1
254
254
255
255
135
1
254
254
255
255
131
1
254
254
255
255
130
1
254
254
255
255
127
1
254
254
255
255
124
1
254
254
255
255
119
1
254
254
255
255
124
1
254
254
255
255
121
1
254
254
255
255
125
1
254
254
255
255
140
1
254
254
255
255
158
1
254
254
255
255
173
1
254
254
255
255
186
1
254
254
255
255
193
1
254
254
255
255
173
1
254
254
255
255
146
1
254
254
255
255
124
1
254
254
255
255
110
1
254
254
255
255
91
1
254
254
255
255
96
1
254
254
255
255
93
1
254
254
255
255
92
1
254
254
255
255
90
1
254
254
255
255
93
1
254
254
255
255
89
1
254
254
255
255
117
1
254
254
255
255
176
1
254
254
255
255
225
1
254
254
255
255
188
1
254
254
11
0
11
53
0
53
255
255
247
0
254
254
255
255
19
1
254
254
255
255
48
1
254
254
255
255
70
1
254
254
255
255
72
1
254
254
255
255
74
1
254
254
255
255
75
1
254
254
255
255
76
1
254
254
255
255
78
1
254
254
255
255
75
1
254
254
255
255
76
1
254
254
255
255
75
1
254
254
255
255
85
1
254
254
255
255
83
1
254
254
255
255
82
1
254
254
255
255
84
1
254
254
255
255
80
1
254
254
255
255
86
1
254
254
255
255
90
1
254
254
255
255
85
1
254
254
255
255
85
1
254
254
255
255
87
1
254
254
255
255
85
1
254
254
255
255
83
1
254
254
255
255
81
1
254
254
255
255
79
1
254
254
255
255
78
1
254
254
255
255
78
1
254
254
255
255
77
1
254
254
255
255
89
1
254
254
255
255
86
1
254
254
255
255
94
1
254
254
255
255
99
1
254
254
255
255
106
1
254
254
255
255
110
1
254
254
255
255
121
1
254
254
255
255
119
1
254
254
255
255
121
1
254
254
255
255
121
1
254
254
255
255
117
1
254
254
255
255
115
1
254
254
255
255
124
1
254
254
255
255
122
1
254
254
255
255
122
1
254
254
255
255
115
1
254
254
255
255
122
1
254
254
255
255
126
1
254
254
255
255
121
1
254
254
255
255
117
1
254
254
255
255
112
1
254
254
255
255
113
1
254
254
255
255
114
1
254
254
255
255
113
1
254
254
255
255
110
1
254
254
255
255
107
1
254
254
255
255
107
1
254
254
255
255
104
1
254
254
255
255
103
1
254
254
255
255
104
1
254
254
255
255
103
1
254
254
255
255
99
1
254
254
255
255
107
1
254
254
255
255
118
1
254
254
255
255
136
1
254
254
255
255
146
1
254
254
255
255
164
1
254
254
255
255
162
1
254
254
255
255
148
1
254
254
255
255
120
1
254
254
255
255
106
1
254
254
255
255
84
1
254
254
255
255
77
1
254
254
255
255
72
1
254
254
255
255
78
1
254
254
255
255
77
1
254
254
255
255
79
1
254
254
255
255
76
1
254
254
255
255
77
1
254
254
255
255
112
1
254
254
255
255
156
1
254
254
255
255
195
1
254
254
255
255
125
1
254
254
255
255
57
1
254
254
255
255
15
1
254
254
255
255
249
0
254
254
255
255
12
1
254
254
255
255
41
1
254
254
48
55
57
51
48
48
255
255
62
1
254
254
255
255
61
1
254
254
255
255
65
1
254
254
255
255
62
1
254
254
255
255
65
1
254
254
255
255
61
1
254
254
255
255
65
1
254
254
255
255
67
1
254
254
255
255
67
1
254
254
255
255
62
1
254
254
255
255
63
1
254
254
255
255
59
1
254
254
255
255
64
1
254
254
255
255
67
1
254
254
255
255
59
1
254
254
255
255
60
1
254
254
255
255
60
1
254
254
255
255
55
1
254
254
255
255
56
1
254
254
255
255
57
1
254
254
255
255
53
1
254
254
255
255
55
1
254
254
255
255
55
1
254
254
255
255
54
1
254
254
255
255
64
1
254
254
255
255
70
1
254
254
255
255
75
1
254
254
255
255
77
1
254
254
255
255
75
1
254
254
255
255
77
1
254
254
255
255
89
1
254
254
11
0
11
53
0
53
255
255
79
1
254
254
255
255
81
1
254
254
255
255
77
1
254
254
255
255
80
1
254
254
255
255
87
1
254
254
255
255
81
1
254
254
255
255
83
1
254
254
255
255
83
1
254
254
255
255
82
1
254
254
255
255
74
1
254
254
255
255
75
1
254
254
255
255
73
1
254
254
255
255
78
1
254
254
255
255
72
1
254
254
255
255
73
1
254
254
255
255
68
1
254
254
255
255
67
1
254
254
255
255
64
1
254
254
255
255
75
1
254
254
255
255
63
1
254
254
255
255
67
1
254
254
255
255
60
1
254
254
255
255
66
1
254
254
255
255
64
1
254
254
255
255
76
1
254
254
255
255
85
1
254
254
255
255
106
1
254
254
255
255
120
1
254
254
255
255
145
1
254
254
255
255
135
1
254
254
255
255
120
1
254
254
255
255
92
1
254
254
255
255
73
1
254
254
255
255
56
1
254
254
255
255
53
1
254
254
255
255
53
1
254
254
255
255
56
1
254
254
255
255
51
1
254
254
255
255
53
1
254
254
255
255
48
1
254
254
255
255
55
1
254
254
255
255
102
1
254
254
255
255
154
1
254
254
255
255
188
1
254
254
255
255
121
1
254
254
255
255
41
1
254
254
255
255
241
0
254
254
255
255
240
0
254
254
255
255
12
1
254
254
255
255
37
1
254
254
255
255
53
1
254
254
255
255
49
1
254
254
255
255
55
1
254
254
255
255
55
1
254
254
255
255
57
1
254
254
255
255
60
1
254
254
255
255
65
1
254
254
255
255
63
1
254
254
255
255
65
1
254
254
255
255
67
1
254
254
255
255
67
1
254
254
255
255
71
1
254
254
255
255
75
1
254
254
255
255
79
1
254
254
255
255
78
1
254
254
255
255
77
1
254
254
255
255
79
1
254
254
255
255
75
1
254
254
255
255
77
1
254
254
255
255
82
1
254
254
255
255
77
1
254
254
255
255
79
1
254
254
255
255
73
1
254
254
255
255
79
1
254
254
255
255
80
1
254
254
255
255
84
1
254
254
255
255
87
1
254
254
255
255
91
1
254
254
255
255
95
1
254
254
255
255
99
1
254
254
255
255
113
1
254
254
255
255
118
1
254
254
255
255
117
1
254
254
255
255
121
1
254
254
255
255
117
1
254
254
255
255
124
1
254
254
255
255
125
1
254
254
255
255
122
1
254
254
255
255
120
1
254
254
255
255
128
1
254
254
255
255
123
1
254
254
255
255
125
1
254
254
255
255
132
1
254
254
255
255
126
1
254
254
255
255
121
1
254
254
255
255
126
1
254
254
255
255
121
1
254
254
255
255
126
1
254
254
255
255
121
1
254
254
255
255
123
1
254
254
255
255
118
1
254
254
255
255
121
1
254
254
255
255
117
1
254
254
255
255
122
1
254
254
255
255
117
1
254
254
255
255
116
1
254
254
255
255
113
1
254
254
255
255
117
1
254
254
255
255
112
1
254
254
255
255
119
1
254
254
255
255
113
1
254
254
255
255
115
1
254
254
255
255
112
1
254
254
255
255
116
1
254
254
255
255
134
1
254
254
255
255
158
1
254
254
255
255
163
1
254
254
255
255
181
1
254
254
255
255
186
1
254
254
255
255
168
1
254
254
255
255
153
1
254
254
11
0
11
53
0
53
255
255
102
1
254
254
255
255
101
1
254
254
255
255
97
1
254
254
255
255
105
1
254
254
255
255
95
1
254
254
255
255
97
1
254
254
255
255
100
1
254
254
255
255
112
1
254
254
255
255
155
1
254
254
255
255
215
1
254
254
255
255
240
1
254
254
255
255
144
1
254
254
255
255
59
1
254
254
255
255
7
1
254
254
255
255
31
1
254
254
255
255
59
1
254
254
255
255
79
1
254
254
255
255
87
1
254
254
255
255
93
1
254
254
255
255
89
1
254
254
255
255
86
1
254
254
255
255
90
1
254
254
255
255
88
1
254
254
255
255
93
1
254
254
255
255
93
1
254
254
255
255
93
1
254
254
255
255
96
1
254
254
255
255
95
1
254
254
255
255
95
1
254
254
255
255
101
1
254
254
255
255
98
1
254
254
255
255
101
1
254
254
255
255
100
1
254
254
255
255
104
1
254
254
255
255
100
1
254
254
255
255
105
1
254
254
255
255
98
1
254
254
255
255
99
1
254
254
255
255
96
1
254
254
255
255
100
1
254
254
255
255
99
1
254
254
255
255
96
1
254
254
255
255
105
1
254
254
255
255
105
1
254
254
255
255
107
1
254
254
255
255
113
1
254
254
255
255
129
1
254
254
255
255
124
1
254
254
255
255
129
1
254
254
255
255
132
1
254
254
255
255
130
1
254
254
255
255
132
1
254
254
255
255
140
1
254
254
255
255
134
1
254
254
255
255
134
1
254
254
255
255
139
1
254
254
255
255
135
1
254
254
255
255
136
1
254
254
255
255
139
1
254
254
255
255
136
1
254
254
255
255
136
1
254
254
255
255
137
1
254
254
255
255
133
1
254
254
255
255
139
1
254
254
255
255
131
1
254
254
255
255
128
1
254
254
255
255
128
1
254
254
255
255
127
1
254
254
255
255
128
1
254
254
255
255
126
1
254
254
255
255
123
1
254
254
255
255
120
1
254
254
255
255
127
1
254
254
255
255
122
1
254
254
255
255
121
1
254
254
255
255
115
1
254
254
255
255
121
1
254
254
255
255
116
1
254
254
255
255
115
1
254
254
255
255
113
1
254
254
255
255
121
1
254
254
255
255
117
1
254
254
255
255
118
1
254
254
255
255
121
1
254
254
255
255
144
1
254
254
255
255
154
1
254
254
48
55
57
50
57
48
255
255
156
1
254
254
255
255
131
1
254
254
255
255
119
1
254
254
255
255
106
1
254
254
255
255
93
1
254
254
255
255
94
1
254
254
255
255
91
1
254
254
255
255
92
1
254
254
255
255
95
1
254
254
255
255
83
1
254
254
255
255
101
1
254
254
255
255
152
1
254
254
255
255
209
1
254
254
255
255
230
1
254
254
255
255
134
1
254
254
255
255
49
1
254
254
255
255
1
1
254
254
255
255
22
1
254
254
255
255
50
1
254
254
255
255
75
1
254
254
255
255
83
1
254
254
255
255
77
1
254
254
255
255
81
1
254
254
255
255
81
1
254
254
255
255
84
1
254
254
255
255
84
1
254
254
255
255
86
1
254
254
255
255
85
1
254
254
255
255
86
1
254
254
255
255
86
1
254
254
255
255
86
1
254
254
255
255
90
1
254
254
11
0
11
53
0
53
255
255
90
1
254
254
255
255
92
1
254
254
255
255
96
1
254
254
255
255
88
1
254
254
255
255
91
1
254
254
255
255
88
1
254
254
255
255
89
1
254
254
255
255
82
1
254
254
255
255
88
1
254
254
255
255
83
1
254
254
255
255
84
1
254
254
255
255
87
1
254
254
255
255
101
1
254
254
255
255
94
1
254
254
255
255
104
1
254
254
255
255
108
1
254
254
255
255
118
1
254
254
255
255
118
1
254
254
255
255
124
1
254
254
255
255
119
1
254
254
255
255
120
1
254
254
255
255
120
1
254
254
255
255
123
1
254
254
255
255
123
1
254
254
255
255
128
1
254
254
255
255
123
1
254
254
255
255
124
1
254
254
255
255
129
1
254
254
255
255
123
1
254
254
255
255
128
1
254
254
255
255
126
1
254
254
255
255
122
1
254
254
255
255
119
1
254
254
255
255
121
1
254
254
255
255
114
1
254
254
255
255
122
1
254
254
255
255
117
1
254
254
255
255
113
1
254
254
255
255
113
1
254
254
255
255
116
1
254
254
255
255
111
1
254
254
255
255
113
1
254
254
255
255
113
1
254
254
255
255
108
1
254
254
255
255
111
1
254
254
255
255
110
1
254
254
255
255
108
1
254
254
255
255
110
1
254
254
255
255
117
1
254
254
255
255
124
1
254
254
255
255
137
1
254
254
255
255
152
1
254
254
255
255
176
1
254
254
255
255
174
1
254
254
255
255
165
1
254
254
255
255
137
1
254
254
255
255
116
1
254
254
255
255
100
1
254
254
255
255
91
1
254
254
255
255
88
1
254
254
255
255
89
1
254
254
255
255
87
1
254
254
255
255
84
1
254
254
255
255
92
1
254
254
255
255
90
1
254
254
255
255
124
1
254
254
255
255
168
1
254
254
255
255
204
1
254
254
255
255
166
1
254
254
255
255
83
1
254
254
255
255
35
1
254
254
255
255
11
1
254
254
255
255
25
1
254
254
255
255
50
1
254
254
255
255
73
1
254
254
255
255
82
1
254
254
255
255
77
1
254
254
255
255
78
1
254
254
255
255
83
1
254
254
255
255
79
1
254
254
255
255
83
1
254
254
255
255
84
1
254
254
255
255
80
1
254
254
255
255
78
1
254
254
255
255
80
1
254
254
255
255
80
1
254
254
255
255
83
1
254
254
255
255
79
1
254
254
255
255
80
1
254
254
255
255
83
1
254
254
255
255
82
1
254
254
255
255
79
1
254
254
255
255
82
1
254
254
255
255
77
1
254
254
255
255
74
1
254
254
255
255
71
1
254
254
255
255
70
1
254
254
255
255
75
1
254
254
255
255
69
1
254
254
255
255
71
1
254
254
255
255
71
1
254
254
255
255
77
1
254
254
255
255
80
1
254
254
255
255
94
1
254
254
255
255
89
1
254
254
255
255
93
1
254
254
255
255
94
1
254
254
255
255
93
1
254
254
255
255
95
1
254
254
255
255
99
1
254
254
255
255
99
1
254
254
255
255
92
1
254
254
255
255
96
1
254
254
255
255
93
1
254
254
255
255
95
1
254
254
255
255
92
1
254
254
255
255
92
1
254
254
255
255
91
1
254
254
255
255
91
1
254
254
255
255
87
1
254
254
255
255
91
1
254
254
11
0
11
53
0
53
255
255
80
1
254
254
255
255
86
1
254
254
255
255
80
1
254
254
255
255
77
1
254
254
255
255
77
1
254
254
255
255
75
1
254
254
255
255
77
1
254
254
255
255
69
1
254
254
255
255
75
1
254
254
255
255
70
1
254
254
255
255
70
1
254
254
255
255
72
1
254
254
255
255
72
1
254
254
255
255
71
1
254
254
255
255
71
1
254
254
255
255
84
1
254
254
255
255
103
1
254
254
255
255
113
1
254
254
255
255
141
1
254
254
255
255
141
1
254
254
255
255
132
1
254
254
255
255
110
1
254
254
255
255
86
1
254
254
255
255
75
1
254
254
255
255
57
1
254
254
255
255
54
1
254
254
255
255
58
1
254
254
255
255
53
1
254
254
255
255
54
1
254
254
255
255
56
1
254
254
255
255
55
1
254
254
255
255
76
1
254
254
255
255
133
1
254
254
255
255
179
1
254
254
255
255
185
1
254
254
255
255
84
1
254
254
255
255
13
1
254
254
255
255
230
0
254
254
255
255
0
1
254
254
255
255
27
1
254
254
255
255
52
1
254
254
255
255
51
1
254
254
255
255
54
1
254
254
255
255
54
1
254
254
255
255
57
1
254
254
255
255
56
1
254
254
255
255
67
1
254
254
255
255
66
1
254
254
255
255
65
1
254
254
255
255
62
1
254
254
255
255
67
1
254
254
255
255
68
1
254
254
255
255
74
1
254
254
255
255
72
1
254
254
255
255
73
1
254
254
255
255
74
1
254
254
255
255
76
1
254
254
255
255
78
1
254
254
255
255
79
1
254
254
255
255
74
1
254
254
255
255
75
1
254
254
255
255
71
1
254
254
255
255
73
1
254
254
255
255
73
1
254
254
255
255
73
1
254
254
255
255
79
1
254
254
255
255
78
1
254
254
255
255
85
1
254
254
255
255
92
1
254
254
255
255
97
1
254
254
255
255
99
1
254
254
255
255
103
1
254
254
255
255
106
1
254
254
255
255
108
1
254
254
255
255
115
1
254
254
255
255
110
1
254
254
255
255
113
1
254
254
255
255
109
1
254
254
255
255
110
1
254
254
255
255
112
1
254
254
255
255
115
1
254
254
255
255
113
1
254
254
255
255
111
1
254
254
255
255
110
1
254
254
255
255
111
1
254
254
48
55
57
51
48
48
255
255
109
1
254
254
255
255
106
1
254
254
255
255
105
1
254
254
255
255
108
1
254
254
255
255
104
1
254
254
255
255
106
1
254
254
255
255
99
1
254
254
255
255
102
1
254
254
255
255
101
1
254
254
255
255
103
1
254
254
255
255
99
1
254
254
255
255
106
1
254
254
255
255
97
1
254
254
255
255
96
1
254
254
255
255
97
1
254
254
255
255
108
1
254
254
255
255
109
1
254
254
255
255
133
1
254
254
255
255
137
1
254
254
255
255
162
1
254
254
255
255
172
1
254
254
255
255
166
1
254
254
255
255
140
1
254
254
255
255
116
1
254
254
255
255
100
1
254
254
255
255
84
1
254
254
255
255
81
1
254
254
255
255
80
1
254
254
255
255
80
1
254
254
255
255
82
1
254
254
255
255
74
1
254
254
255
255
74
1
254
254
255
255
96
1
254
254
11
0
11
53
0
53
255
255
222
1
254
254
255
255
163
1
254
254
255
255
68
1
254
254
255
255
250
0
254
254
255
255
255
0
254
254
255
255
28
1
254
254
255
255
63
1
254
254
255
255
70
1
254
254
255
255
70
1
254
254
255
255
68
1
254
254
255
255
72
1
254
254
255
255
73
1
254
254
255
255
77
1
254
254
255
255
76
1
254
254
255
255
75
1
254
254
255
255
77
1
254
254
255
255
75
1
254
254
255
255
78
1
254
254
255
255
79
1
254
254
255
255
80
1
254
254
255
255
77
1
254
254
255
255
83
1
254
254
255
255
81
1
254
254
255
255
87
1
254
254
255
255
78
1
254
254
255
255
80
1
254
254
255
255
77
1
254
254
255
255
78
1
254
254
255
255
77
1
254
254
255
255
77
1
254
254
255
255
68
1
254
254
255
255
76
1
254
254
255
255
75
1
254
254
255
255
80
1
254
254
255
255
85
1
254
254
255
255
92
1
254
254
255
255
95
1
254
254
255
255
105
1
254
254
255
255
101
1
254
254
255
255
105
1
254
254
255
255
113
1
254
254
255
255
108
1
254
254
255
255
108
1
254
254
255
255
113
1
254
254
255
255
111
1
254
254
255
255
112
1
254
254
255
255
115
1
254
254
255
255
109
1
254
254
255
255
114
1
254
254
255
255
114
1
254
254
255
255
108
1
254
254
255
255
112
1
254
254
255
255
117
1
254
254
255
255
111
1
254
254
255
255
106
1
254
254
255
255
111
1
254
254
255
255
108
1
254
254
255
255
109
1
254
254
255
255
107
1
254
254
255
255
108
1
254
254
255
255
105
1
254
254
255
255
107
1
254
254
255
255
105
1
254
254
255
255
105
1
254
254
255
255
108
1
254
254
255
255
103
1
254
254
255
255
103
1
254
254
255
255
107
1
254
254
255
255
107
1
254
254
255
255
120
1
254
254
255
255
134
1
254
254
255
255
144
1
254
254
255
255
168
1
254
254
255
255
173
1
254
254
255
255
177
1
254
254
255
255
145
1
254
254
255
255
125
1
254
254
255
255
113
1
254
254
255
255
95
1
254
254
255
255
88
1
254
254
255
255
98
1
254
254
255
255
93
1
254
254
255
255
91
1
254
254
255
255
93
1
254
254
255
255
88
1
254
254
255
255
108
1
254
254
255
255
170
1
254
254
255
255
213
1
254
254
255
255
227
1
254
254
255
255
133
1
254
254
255
255
81
1
254
254
255
255
29
1
254
254
255
255
32
1
254
254
255
255
45
1
254
254
255
255
78
1
254
254
255
255
87
1
254
254
255
255
85
1
254
254
255
255
92
1
254
254
255
255
90
1
254
254
255
255
94
1
254
254
255
255
95
1
254
254
255
255
93
1
254
254
255
255
98
1
254
254
255
255
97
1
254
254
255
255
102
1
254
254
255
255
97
1
254
254
255
255
101
1
254
254
255
255
98
1
254
254
255
255
108
1
254
254
255
255
103
1
254
254
255
255
108
1
254
254
255
255
108
1
254
254
255
255
102
1
254
254
255
255
100
1
254
254
255
255
104
1
254
254
255
255
93
1
254
254
255
255
98
1
254
254
255
255
94
1
254
254
255
255
96
1
254
254
255
255
101
1
254
254
255
255
102
1
254
254
11
0
11
53
0
53
255
255
117
1
254
254
255
255
110
1
254
254
255
255
120
1
254
254
255
255
122
1
254
254
255
255
125
1
254
254
255
255
123
1
254
254
255
255
130
1
254
254
255
255
119
1
254
254
255
255
119
1
254
254
255
255
120
1
254
254
255
255
116
1
254
254
255
255
115
1
254
254
255
255
117
1
254
254
255
255
115
1
254
254
255
255
115
1
254
254
255
255
110
1
254
254
255
255
111
1
254
254
255
255
111
1
254
254
255
255
108
1
254
254
255
255
100
1
254
254
255
255
99
1
254
254
255
255
98
1
254
254
255
255
96
1
254
254
255
255
99
1
254
254
255
255
94
1
254
254
255
255
88
1
254
254
255
255
80
1
254
254
255
255
84
1
254
254
255
255
86
1
254
254
255
255
80
1
254
254
255
255
81
1
254
254
255
255
82
1
254
254
255
255
99
1
254
254
255
255
104
1
254
254
255
255
126
1
254
254
255
255
137
1
254
254
255
255
129
1
254
254
255
255
112
1
254
254
255
255
78
1
254
254
255
255
61
1
254
254
255
255
47
1
254
254
255
255
33
1
254
254
255
255
33
1
254
254
255
255
31
1
254
254
255
255
25
1
254
254
255
255
27
1
254
254
255
255
22
1
254
254
255
255
28
1
254
254
255
255
71
1
254
254
255
255
120
1
254
254
255
255
141
1
254
254
255
255
66
1
254
254
255
255
250
0
254
254
255
255
196
0
254
254
255
255
190
0
254
254
255
255
213
0
254
254
255
255
239
0
254
254
255
255
250
0
254
254
255
255
247
0
254
254
255
255
249
0
254
254
255
255
247
0
254
254
255
255
248
0
254
254
255
255
245
0
254
254
255
255
248
0
254
254
255
255
248
0
254
254
255
255
247
0
254
254
255
255
246
0
254
254
255
255
248
0
254
254
255
255
251
0
254
254
255
255
249
0
254
254
255
255
248
0
254
254
255
255
249
0
254
254
255
255
247
0
254
254
255
255
249
0
254
254
255
255
250
0
254
254
255
255
251
0
254
254
255
255
243
0
254
254
255
255
243
0
254
254
255
255
239
0
254
254
255
255
241
0
254
254
255
255
239
0
254
254
255
255
240
0
254
254
255
255
241
0
254
254
255
255
248
0
254
254
48
55
57
51
48
48
255
255
10
1
254
254
255
255
13
1
254
254
255
255
16
1
254
254
255
255
16
1
254
254
255
255
23
1
254
254
255
255
22
1
254
254
255
255
21
1
254
254
255
255
24
1
254
254
255
255
24
1
254
254
255
255
25
1
254
254
255
255
29
1
254
254
255
255
23
1
254
254
255
255
26
1
254
254
255
255
27
1
254
254
255
255
26
1
254
254
255
255
26
1
254
254
255
255
31
1
254
254
255
255
25
1
254
254
255
255
26
1
254
254
255
255
27
1
254
254
255
255
23
1
254
254
255
255
27
1
254
254
255
255
23
1
254
254
255
255
22
1
254
254
255
255
20
1
254
254
255
255
20
1
254
254
255
255
23
1
254
254
255
255
22
1
254
254
255
255
22
1
254
254
255
255
23
1
254
254
255
255
27
1
254
254
255
255
48
1
254
254
255
255
63
1
254
254
255
255
81
1
254
254
11
0
11
53
0
53
255
255
95
1
254
254
255
255
70
1
254
254
255
255
46
1
254
254
255
255
34
1
254
254
255
255
18
1
254
254
255
255
15
1
254
254
255
255
20
1
254
254
255
255
19
1
254
254
255
255
18
1
254
254
255
255
16
1
254
254
255
255
14
1
254
254
255
255
36
1
254
254
255
255
93
1
254
254
255
255
142
1
254
254
255
255
163
1
254
254
255
255
67
1
254
254
255
255
236
0
254
254
255
255
196
0
254
254
255
255
225
0
254
254
255
255
255
0
254
254
255
255
24
1
254
254
255
255
30
1
254
254
255
255
31
1
254
254
255
255
37
1
254
254
255
255
34
1
254
254
255
255
38
1
254
254
255
255
45
1
254
254
255
255
47
1
254
254
255
255
51
1
254
254
255
255
58
1
254
254
255
255
56
1
254
254
255
255
56
1
254
254
255
255
61
1
254
254
255
255
64
1
254
254
255
255
70
1
254
254
255
255
68
1
254
254
255
255
71
1
254
254
255
255
71
1
254
254
255
255
79
1
254
254
255
255
73
1
254
254
255
255
81
1
254
254
255
255
80
1
254
254
255
255
78
1
254
254
255
255
77
1
254
254
255
255
80
1
254
254
255
255
81
1
254
254
255
255
94
1
254
254
255
255
97
1
254
254
255
255
100
1
254
254
255
255
104
1
254
254
255
255
109
1
254
254
255
255
118
1
254
254
255
255
122
1
254
254
255
255
124
1
254
254
255
255
125
1
254
254
255
255
126
1
254
254
255
255
131
1
254
254
255
255
136
1
254
254
255
255
131
1
254
254
255
255
132
1
254
254
255
255
135
1
254
254
255
255
130
1
254
254
255
255
134
1
254
254
255
255
139
1
254
254
255
255
138
1
254
254
255
255
140
1
254
254
255
255
143
1
254
254
255
255
140
1
254
254
255
255
147
1
254
254
255
255
142
1
254
254
255
255
142
1
254
254
255
255
138
1
254
254
255
255
140
1
254
254
255
255
137
1
254
254
255
255
142
1
254
254
255
255
135
1
254
254
255
255
137
1
254
254
255
255
137
1
254
254
255
255
137
1
254
254
255
255
133
1
254
254
255
255
142
1
254
254
255
255
137
1
254
254
255
255
146
1
254
254
255
255
161
1
254
254
255
255
177
1
254
254
255
255
193
1
254
254
255
255
207
1
254
254
255
255
202
1
254
254
255
255
179
1
254
254
255
255
153
1
254
254
255
255
137
1
254
254
255
255
127
1
254
254
255
255
117
1
254
254
255
255
115
1
254
254
255
255
111
1
254
254
255
255
115
1
254
254
255
255
119
1
254
254
255
255
114
1
254
254
255
255
122
1
254
254
255
255
175
1
254
254
255
255
228
1
254
254
255
255
6
2
254
254
255
255
174
1
254
254
255
255
83
1
254
254
255
255
28
1
254
254
255
255
52
1
254
254
255
255
77
1
254
254
255
255
107
1
254
254
255
255
118
1
254
254
255
255
114
1
254
254
255
255
114
1
254
254
255
255
122
1
254
254
255
255
118
1
254
254
255
255
119
1
254
254
255
255
128
1
254
254
255
255
126
1
254
254
255
255
121
1
254
254
255
255
127
1
254
254
255
255
129
1
254
254
255
255
133
1
254
254
255
255
134
1
254
254
11
0
11
53
0
53
255
255
140
1
254
254
255
255
138
1
254
254
255
255
138
1
254
254
255
255
141
1
254
254
255
255
136
1
254
254
255
255
133
1
254
254
255
255
140
1
254
254
255
255
136
1
254
254
255
255
137
1
254
254
255
255
136
1
254
254
255
255
138
1
254
254
255
255
146
1
254
254
255
255
144
1
254
254
255
255
153
1
254
254
255
255
156
1
254
254
255
255
163
1
254
254
255
255
165
1
254
254
255
255
177
1
254
254
255
255
176
1
254
254
255
255
176
1
254
254
255
255
175
1
254
254
255
255
175
1
254
254
255
255
177
1
254
254
255
255
182
1
254
254
255
255
180
1
254
254
255
255
180
1
254
254
255
255
175
1
254
254
255
255
182
1
254
254
255
255
184
1
254
254
255
255
179
1
254
254
255
255
177
1
254
254
255
255
178
1
254
254
255
255
172
1
254
254
255
255
174
1
254
254
255
255
180
1
254
254
255
255
169
1
254
254
255
255
168
1
254
254
255
255
165
1
254
254
255
255
161
1
254
254
255
255
166
1
254
254
255
255
167
1
254
254
255
255
165
1
254
254
255
255
163
1
254
254
255
255
178
1
254
254
255
255
188
1
254
254
255
255
203
1
254
254
255
255
231
1
254
254
255
255
230
1
254
254
255
255
218
1
254
254
255
255
193
1
254
254
255
255
171
1
254
254
255
255
158
1
254
254
255
255
139
1
254
254
255
255
141
1
254
254
255
255
138
1
254
254
255
255
140
1
254
254
255
255
137
1
254
254
255
255
138
1
254
254
255
255
134
1
254
254
255
255
162
1
254
254
255
255
206
1
254
254
255
255
239
1
254
254
255
255
220
1
254
254
255
255
124
1
254
254
255
255
91
1
254
254
255
255
53
1
254
254
255
255
63
1
254
254
255
255
86
1
254
254
255
255
117
1
254
254
255
255
117
1
254
254
255
255
116
1
254
254
255
255
113
1
254
254
255
255
114
1
254
254
255
255
115
1
254
254
255
255
119
1
254
254
255
255
117
1
254
254
255
255
115
1
254
254
255
255
112
1
254
254
255
255
114
1
254
254
255
255
115
1
254
254
255
255
123
1
254
254
255
255
115
1
254
254
255
255
114
1
254
254
48
55
57
50
57
48
255
255
113
1
254
254
255
255
110
1
254
254
255
255
107
1
254
254
255
255
109
1
254
254
255
255
108
1
254
254
255
255
111
1
254
254
255
255
109
1
254
254
255
255
108
1
254
254
255
255
107
1
254
254
255
255
110
1
254
254
255
255
116
1
254
254
255
255
121
1
254
254
255
255
125
1
254
254
255
255
123
1
254
254
255
255
127
1
254
254
255
255
122
1
254
254
255
255
131
1
254
254
255
255
124
1
254
254
255
255
125
1
254
254
255
255
123
1
254
254
255
255
129
1
254
254
255
255
124
1
254
254
255
255
125
1
254
254
255
255
123
1
254
254
255
255
125
1
254
254
255
255
118
1
254
254
255
255
125
1
254
254
255
255
118
1
254
254
255
255
123
1
254
254
255
255
117
1
254
254
255
255
118
1
254
254
255
255
112
1
254
254
255
255
112
1
254
254
255
255
111
1
254
254
255
255
108
1
254
254
11
0
11
53
0
53
255
255
112
1
254
254
255
255
101
1
254
254
255
255
102
1
254
254
255
255
114
1
254
254
255
255
129
1
254
254
255
255
144
1
254
254
255
255
168
1
254
254
255
255
172
1
254
254
255
255
164
1
254
254
255
255
148
1
254
254
255
255
117
1
254
254
255
255
99
1
254
254
255
255
81
1
254
254
255
255
74
1
254
254
255
255
75
1
254
254
255
255
78
1
254
254
255
255
76
1
254
254
255
255
77
1
254
254
255
255
73
1
254
254
255
255
85
1
254
254
255
255
132
1
254
254
255
255
183
1
254
254
255
255
203
1
254
254
255
255
113
1
254
254
255
255
37
1
254
254
255
255
238
0
254
254
255
255
3
1
254
254
255
255
33
1
254
254
255
255
59
1
254
254
255
255
64
1
254
254
255
255
62
1
254
254
255
255
62
1
254
254
255
255
65
1
254
254
255
255
65
1
254
254
255
255
72
1
254
254
255
255
66
1
254
254
255
255
73
1
254
254
255
255
70
1
254
254
255
255
72
1
254
254
255
255
72
1
254
254
255
255
80
1
254
254
255
255
73
1
254
254
255
255
75
1
254
254
255
255
75
1
254
254
255
255
76
1
254
254
255
255
77
1
254
254
255
255
82
1
254
254
255
255
76
1
254
254
255
255
73
1
254
254
255
255
77
1
254
254
255
255
71
1
254
254
255
255
73
1
254
254
255
255
70
1
254
254
255
255
69
1
254
254
255
255
72
1
254
254
255
255
77
1
254
254
255
255
81
1
254
254
255
255
92
1
254
254
255
255
93
1
254
254
255
255
97
1
254
254
255
255
96
1
254
254
255
255
100
1
254
254
255
255
103
1
254
254
255
255
102
1
254
254
255
255
102
1
254
254
255
255
99
1
254
254
255
255
103
1
254
254
255
255
103
1
254
254
255
255
105
1
254
254
255
255
102
1
254
254
255
255
102
1
254
254
255
255
101
1
254
254
255
255
100
1
254
254
255
255
103
1
254
254
255
255
106
1
254
254
255
255
97
1
254
254
255
255
98
1
254
254
255
255
96
1
254
254
255
255
96
1
254
254
255
255
96
1
254
254
255
255
97
1
254
254
255
255
92
1
254
254
255
255
89
1
254
254
255
255
86
1
254
254
255
255
84
1
254
254
255
255
98
1
254
254
255
255
114
1
254
254
255
255
125
1
254
254
255
255
143
1
254
254
255
255
158
1
254
254
255
255
151
1
254
254
255
255
138
1
254
254
255
255
101
1
254
254
255
255
85
1
254
254
255
255
69
1
254
254
255
255
63
1
254
254
255
255
58
1
254
254
255
255
65
1
254
254
255
255
56
1
254
254
255
255
55
1
254
254
255
255
48
1
254
254
255
255
60
1
254
254
255
255
111
1
254
254
255
255
163
1
254
254
255
255
203
1
254
254
255
255
120
1
254
254
255
255
25
1
254
254
255
255
218
0
254
254
255
255
241
0
254
254
255
255
17
1
254
254
255
255
44
1
254
254
255
255
52
1
254
254
255
255
48
1
254
254
255
255
55
1
254
254
255
255
60
1
254
254
255
255
60
1
254
254
255
255
58
1
254
254
255
255
61
1
254
254
255
255
61
1
254
254
255
255
64
1
254
254
255
255
63
1
254
254
11
0
11
53
0
53
255
255
73
1
254
254
255
255
71
1
254
254
255
255
73
1
254
254
255
255
76
1
254
254
255
255
73
1
254
254
255
255
75
1
254
254
255
255
70
1
254
254
255
255
72
1
254
254
255
255
73
1
254
254
255
255
71
1
254
254
255
255
66
1
254
254
255
255
75
1
254
254
255
255
75
1
254
254
255
255
75
1
254
254
255
255
76
1
254
254
255
255
80
1
254
254
255
255
85
1
254
254
255
255
96
1
254
254
255
255
98
1
254
254
255
255
105
1
254
254
255
255
106
1
254
254
255
255
107
1
254
254
255
255
102
1
254
254
255
255
112
1
254
254
255
255
103
1
254
254
255
255
104
1
254
254
255
255
108
1
254
254
255
255
109
1
254
254
255
255
113
1
254
254
255
255
108
1
254
254
255
255
110
1
254
254
255
255
112
1
254
254
255
255
110
1
254
254
255
255
113
1
254
254
255
255
109
1
254
254
255
255
110
1
254
254
255
255
106
1
254
254
255
255
103
1
254
254
255
255
102
1
254
254
255
255
104
1
254
254
255
255
109
1
254
254
255
255
107
1
254
254
255
255
120
1
254
254
255
255
135
1
254
254
255
255
149
1
254
254
255
255
175
1
254
254
255
255
174
1
254
254
255
255
167
1
254
254
255
255
143
1
254
254
255
255
118
1
254
254
255
255
98
1
254
254
255
255
92
1
254
254
255
255
85
1
254
254
255
255
83
1
254
254
255
255
86
1
254
254
255
255
84
1
254
254
255
255
81
1
254
254
255
255
82
1
254
254
255
255
100
1
254
254
255
255
145
1
254
254
255
255
201
1
254
254
255
255
206
1
254
254
255
255
111
1
254
254
255
255
22
1
254
254
255
255
249
0
254
254
255
255
24
1
254
254
255
255
50
1
254
254
255
255
70
1
254
254
255
255
84
1
254
254
255
255
71
1
254
254
255
255
77
1
254
254
255
255
73
1
254
254
255
255
81
1
254
254
255
255
81
1
254
254
255
255
81
1
254
254
255
255
78
1
254
254
255
255
79
1
254
254
255
255
78
1
254
254
255
255
78
1
254
254
255
255
87
1
254
254
255
255
84
1
254
254
255
255
82
1
254
254
48
55
57
51
48
48
255
255
86
1
254
254
255
255
80
1
254
254
255
255
81
1
254
254
255
255
77
1
254
254
255
255
74
1
254
254
255
255
74
1
254
254
255
255
77
1
254
254
255
255
77
1
254
254
255
255
79
1
254
254
255
255
80
1
254
254
255
255
87
1
254
254
255
255
93
1
254
254
255
255
93
1
254
254
255
255
95
1
254
254
255
255
94
1
254
254
255
255
97
1
254
254
255
255
96
1
254
254
255
255
98
1
254
254
255
255
97
1
254
254
255
255
96
1
254
254
255
255
91
1
254
254
255
255
94
1
254
254
255
255
92
1
254
254
255
255
97
1
254
254
255
255
90
1
254
254
255
255
87
1
254
254
255
255
87
1
254
254
255
255
87
1
254
254
255
255
87
1
254
254
255
255
83
1
254
254
255
255
82
1
254
254
255
255
78
1
254
254
255
255
80
1
254
254
255
255
75
1
254
254
255
255
87
1
254
254
255
255
93
1
254
254
11
0
11
53
0
53
255
255
130
1
254
254
255
255
142
1
254
254
255
255
135
1
254
254
255
255
114
1
254
254
255
255
85
1
254
254
255
255
70
1
254
254
255
255
53
1
254
254
255
255
44
1
254
254
255
255
49
1
254
254
255
255
45
1
254
254
255
255
47
1
254
254
255
255
49
1
254
254
255
255
48
1
254
254
255
255
60
1
254
254
255
255
105
1
254
254
255
255
144
1
254
254
255
255
168
1
254
254
255
255
72
1
254
254
255
255
9
1
254
254
255
255
210
0
254
254
255
255
234
0
254
254
255
255
4
1
254
254
255
255
34
1
254
254
255
255
44
1
254
254
255
255
44
1
254
254
255
255
47
1
254
254
255
255
49
1
254
254
255
255
53
1
254
254
255
255
57
1
254
254
255
255
55
1
254
254
255
255
51
1
254
254
255
255
56
1
254
254
255
255
58
1
254
254
255
255
59
1
254
254
255
255
63
1
254
254
255
255
67
1
254
254
255
255
63
1
254
254
255
255
66
1
254
254
255
255
69
1
254
254
255
255
75
1
254
254
255
255
65
1
254
254
255
255
70
1
254
254
255
255
64
1
254
254
255
255
65
1
254
254
255
255
65
1
254
254
255
255
70
1
254
254
255
255
65
1
254
254
255
255
70
1
254
254
255
255
72
1
254
254
255
255
73
1
254
254
255
255
78
1
254
254
255
255
92
1
254
254
255
255
91
1
254
254
255
255
95
1
254
254
255
255
99
1
254
254
255
255
104
1
254
254
255
255
108
1
254
254
255
255
105
1
254
254
255
255
105
1
254
254
255
255
108
1
254
254
255
255
110
1
254
254
255
255
111
1
254
254
255
255
118
1
254
254
255
255
115
1
254
254
255
255
116
1
254
254
255
255
117
1
254
254
255
255
114
1
254
254
255
255
117
1
254
254
255
255
125
1
254
254
255
255
119
1
254
254
255
255
113
1
254
254
255
255
118
1
254
254
255
255
115
1
254
254
255
255
123
1
254
254
255
255
128
1
254
254
255
255
141
1
254
254
255
255
152
1
254
254
255
255
177
1
254
254
255
255
174
1
254
254
255
255
171
1
254
254
255
255
140
1
254
254
255
255
122
1
254
254
255
255
103
1
254
254
255
255
92
1
254
254
255
255
89
1
254
254
255
255
93
1
254
254
255
255
89
1
254
254
255
255
90
1
254
254
255
255
87
1
254
254
255
255
85
1
254
254
255
255
119
1
254
254
255
255
173
1
254
254
255
255
209
1
254
254
255
255
181
1
254
254
255
255
94
1
254
254
255
255
56
1
254
254
255
255
20
1
254
254
255
255
25
1
254
254
255
255
47
1
254
254
255
255
70
1
254
254
255
255
77
1
254
254
255
255
75
1
254
254
255
255
82
1
254
254
255
255
82
1
254
254
255
255
84
1
254
254
255
255
78
1
254
254
255
255
81
1
254
254
255
255
89
1
254
254
255
255
89
1
254
254
255
255
84
1
254
254
255
255
83
1
254
254
255
255
86
1
254
254
255
255
86
1
254
254
255
255
87
1
254
254
255
255
88
1
254
254
255
255
85
1
254
254
255
255
88
1
254
254
255
255
86
1
254
254
255
255
80
1
254
254
255
255
83
1
254
254
255
255
78
1
254
254
11
0
11
53
0
53
255
255
75
1
254
254
255
255
75
1
254
254
255
255
78
1
254
254
255
255
87
1
254
254
255
255
94
1
254
254
255
255
103
1
254
254
255
255
103
1
254
254
255
255
110
1
254
254
255
255
111
1
254
254
255
255
111
1
254
254
255
255
112
1
254
254
255
255
115
1
254
254
255
255
112
1
254
254
255
255
115
1
254
254
255
255
114
1
254
254
255
255
116
1
254
254
255
255
120
1
254
254
255
255
118
1
254
254
255
255
121
1
254
254
255
255
115
1
254
254
255
255
113
1
254
254
255
255
115
1
254
254
255
255
124
1
254
254
255
255
113
1
254
254
255
255
118
1
254
254
255
255
113
1
254
254
255
255
111
1
254
254
255
255
118
1
254
254
255
255
142
1
254
254
255
255
143
1
254
254
255
255
162
1
254
254
255
255
176
1
254
254
255
255
170
1
254
254
255
255
159
1
254
254
255
255
132
1
254
254
255
255
106
1
254
254
255
255
90
1
254
254
255
255
87
1
254
254
255
255
84
1
254
254
255
255
84
1
254
254
255
255
87
1
254
254
255
255
78
1
254
254
255
255
78
1
254
254
255
255
82
1
254
254
255
255
121
1
254
254
255
255
179
1
254
254
255
255
214
1
254
254
255
255
151
1
254
254
255
255
70
1
254
254
255
255
2
1
254
254
255
255
1
1
254
254
255
255
33
1
254
254
255
255
61
1
254
254
255
255
69
1
254
254
255
255
74
1
254
254
255
255
74
1
254
254
255
255
77
1
254
254
255
255
75
1
254
254
255
255
78
1
254
254
255
255
76
1
254
254
255
255
78
1
254
254
255
255
80
1
254
254
255
255
90
1
254
254
255
255
87
1
254
254
255
255
87
1
254
254
255
255
82
1
254
254
255
255
88
1
254
254
255
255
90
1
254
254
255
255
93
1
254
254
255
255
88
1
254
254
255
255
89
1
254
254
255
255
89
1
254
254
255
255
82
1
254
254
255
255
86
1
254
254
255
255
84
1
254
254
255
255
84
1
254
254
255
255
83
1
254
254
255
255
85
1
254
254
255
255
89
1
254
254
255
255
95
1
254
254
255
255
95
1
254
254
48
55
57
51
48
48
255
255
115
1
254
254
255
255
124
1
254
254
255
255
120
1
254
254
255
255
119
1
254
254
255
255
122
1
254
254
255
255
123
1
254
254
255
255
123
1
254
254
255
255
129
1
254
254
255
255
124
1
254
254
255
255
124
1
254
254
255
255
121
1
254
254
255
255
124
1
254
254
255
255
124
1
254
254
255
255
123
1
254
254
255
255
122
1
254
254
255
255
118
1
254
254
255
255
120
1
254
254
255
255
118
1
254
254
255
255
118
1
254
254
255
255
114
1
254
254
255
255
120
1
254
254
255
255
136
1
254
254
255
255
148
1
254
254
255
255
173
1
254
254
255
255
190
1
254
254
255
255
176
1
254
254
255
255
151
1
254
254
255
255
128
1
254
254
255
255
107
1
254
254
255
255
99
1
254
254
255
255
81
1
254
254
255
255
83
1
254
254
255
255
84
1
254
254
255
255
83
1
254
254
255
255
81
1
254
254
255
255
87
1
254
254
255
255
86
1
254
254
11
0
11
53
0
53
255
255
211
1
254
254
255
255
202
1
254
254
255
255
92
1
254
254
255
255
12
1
254
254
255
255
243
0
254
254
255
255
27
1
254
254
255
255
54
1
254
254
255
255
73
1
254
254
255
255
70
1
254
254
255
255
72
1
254
254
255
255
72
1
254
254
255
255
79
1
254
254
255
255
76
1
254
254
255
255
84
1
254
254
255
255
77
1
254
254
255
255
79
1
254
254
255
255
78
1
254
254
255
255
86
1
254
254
255
255
86
1
254
254
255
255
84
1
254
254
255
255
81
1
254
254
255
255
89
1
254
254
255
255
90
1
254
254
255
255
84
1
254
254
255
255
89
1
254
254
255
255
83
1
254
254
255
255
81
1
254
254
255
255
82
1
254
254
255
255
83
1
254
254
255
255
80
1
254
254
255
255
78
1
254
254
255
255
85
1
254
254
255
255
82
1
254
254
255
255
87
1
254
254
255
255
96
1
254
254
255
255
100
1
254
254
255
255
102
1
254
254
255
255
108
1
254
254
255
255
112
1
254
254
255
255
119
1
254
254
255
255
114
1
254
254
255
255
118
1
254
254
255
255
115
1
254
254
255
255
121
1
254
254
255
255
116
1
254
254
255
255
121
1
254
254
255
255
114
1
254
254
255
255
118
1
254
254
255
255
118
1
254
254
255
255
116
1
254
254
255
255
116
1
254
254
255
255
118
1
254
254
255
255
118
1
254
254
255
255
113
1
254
254
255
255
112
1
254
254
255
255
111
1
254
254
255
255
110
1
254
254
255
255
106
1
254
254
255
255
103
1
254
254
255
255
102
1
254
254
255
255
106
1
254
254
255
255
124
1
254
254
255
255
144
1
254
254
255
255
152
1
254
254
255
255
174
1
254
254
255
255
162
1
254
254
255
255
149
1
254
254
255
255
116
1
254
254
255
255
102
1
254
254
255
255
80
1
254
254
255
255
70
1
254
254
255
255
71
1
254
254
255
255
67
1
254
254
255
255
71
1
254
254
255
255
67
1
254
254
255
255
65
1
254
254
255
255
61
1
254
254
255
255
93
1
254
254
255
255
152
1
254
254
255
255
205
1
254
254
255
255
148
1
254
254
255
255
55
1
254
254
255
255
238
0
254
254
255
255
238
0
254
254
255
255
16
1
254
254
255
255
46
1
254
254
255
255
54
1
254
254
255
255
54
1
254
254
255
255
55
1
254
254
255
255
56
1
254
254
255
255
64
1
254
254
255
255
59
1
254
254
255
255
67
1
254
254
255
255
64
1
254
254
255
255
66
1
254
254
255
255
66
1
254
254
255
255
73
1
254
254
255
255
67
1
254
254
255
255
71
1
254
254
255
255
70
1
254
254
255
255
82
1
254
254
255
255
76
1
254
254
255
255
84
1
254
254
255
255
75
1
254
254
255
255
78
1
254
254
255
255
71
1
254
254
255
255
74
1
254
254
255
255
73
1
254
254
255
255
69
1
254
254
255
255
72
1
254
254
255
255
71
1
254
254
255
255
78
1
254
254
255
255
86
1
254
254
255
255
84
1
254
254
255
255
93
1
254
254
255
255
101
1
254
254
255
255
103
1
254
254
255
255
105
1
254
254
255
255
110
1
254
254
255
255
113
1
254
254
255
255
117
1
254
254
11
0
11
53
0
53
255
255
113
1
254
254
255
255
118
1
254
254
255
255
120
1
254
254
255
255
114
1
254
254
255
255
123
1
254
254
255
255
122
1
254
254
255
255
116
1
254
254
255
255
115
1
254
254
255
255
120
1
254
254
255
255
108
1
254
254
255
255
110
1
254
254
255
255
116
1
254
254
255
255
111
1
254
254
255
255
107
1
254
254
255
255
112
1
254
254
255
255
107
1
254
254
255
255
128
1
254
254
255
255
133
1
254
254
255
255
150
1
254
254
255
255
168
1
254
254
255
255
172
1
254
254
255
255
156
1
254
254
255
255
135
1
254
254
255
255
110
1
254
254
255
255
91
1
254
254
255
255
82
1
254
254
255
255
85
1
254
254
255
255
80
1
254
254
255
255
86
1
254
254
255
255
82
1
254
254
255
255
78
1
254
254
255
255
77
1
254
254
255
255
109
1
254
254
255
255
165
1
254
254
255
255
198
1
254
254
255
255
169
1
254
254
255
255
80
1
254
254
255
255
40
1
254
254
255
255
7
1
254
254
255
255
18
1
254
254
255
255
39
1
254
254
255
255
62
1
254
254
255
255
65
1
254
254
255
255
63
1
254
254
255
255
61
1
254
254
255
255
66
1
254
254
255
255
63
1
254
254
255
255
65
1
254
254
255
255
66
1
254
254
255
255
64
1
254
254
255
255
64
1
254
254
255
255
64
1
254
254
255
255
63
1
254
254
255
255
65
1
254
254
255
255
69
1
254
254
255
255
64
1
254
254
255
255
69
1
254
254
255
255
63
1
254
254
255
255
64
1
254
254
255
255
60
1
254
254
255
255
55
1
254
254
255
255
55
1
254
254
255
255
55
1
254
254
255
255
54
1
254
254
255
255
52
1
254
254
255
255
53
1
254
254
255
255
57
1
254
254
255
255
61
1
254
254
255
255
60
1
254
254
255
255
75
1
254
254
255
255
74
1
254
254
255
255
79
1
254
254
255
255
84
1
254
254
255
255
95
1
254
254
255
255
88
1
254
254
255
255
93
1
254
254
255
255
88
1
254
254
255
255
88
1
254
254
255
255
87
1
254
254
255
255
93
1
254
254
48
55
57
51
48
48
255
255
89
1
254
254
255
255
88
1
254
254
255
255
93
1
254
254
255
255
87
1
254
254
255
255
92
1
254
254
255
255
85
1
254
254
255
255
85
1
254
254
255
255
89
1
254
254
255
255
83
1
254
254
255
255
84
1
254
254
255
255
95
1
254
254
255
255
104
1
254
254
255
255
115
1
254
254
255
255
139
1
254
254
255
255
153
1
254
254
255
255
146
1
254
254
255
255
132
1
254
254
255
255
101
1
254
254
255
255
84
1
254
254
255
255
69
1
254
254
255
255
59
1
254
254
255
255
58
1
254
254
255
255
61
1
254
254
255
255
60
1
254
254
255
255
60
1
254
254
255
255
55
1
254
254
255
255
61
1
254
254
255
255
103
1
254
254
255
255
156
1
254
254
255
255
188
1
254
254
255
255
121
1
254
254
255
255
41
1
254
254
255
255
236
0
254
254
255
255
240
0
254
254
255
255
16
1
254
254
255
255
46
1
254
254
255
255
55
1
254
254
255
255
54
1
254
254
11
0
11
53
0
53
255
255
56
1
254
254
255
255
64
1
254
254
255
255
61
1
254
254
255
255
61
1
254
254
255
255
63
1
254
254
255
255
70
1
254
254
255
255
67
1
254
254
255
255
71
1
254
254
255
255
68
1
254
254
255
255
76
1
254
254
255
255
72
1
254
254
255
255
81
1
254
254
255
255
78
1
254
254
255
255
80
1
254
254
255
255
74
1
254
254
255
255
75
1
254
254
255
255
80
1
254
254
255
255
74
1
254
254
255
255
76
1
254
254
255
255
83
1
254
254
255
255
76
1
254
254
255
255
79
1
254
254
255
255
89
1
254
254
255
255
86
1
254
254
255
255
92
1
254
254
255
255
101
1
254
254
255
255
103
1
254
254
255
255
110
1
254
254
255
255
118
1
254
254
255
255
115
1
254
254
255
255
118
1
254
254
255
255
119
1
254
254
255
255
116
1
254
254
255
255
120
1
254
254
255
255
122
1
254
254
255
255
119
1
254
254
255
255
119
1
254
254
255
255
123
1
254
254
255
255
122
1
254
254
255
255
124
1
254
254
255
255
121
1
254
254
255
255
121
1
254
254
255
255
118
1
254
254
255
255
115
1
254
254
255
255
119
1
254
254
255
255
114
1
254
254
255
255
116
1
254
254
255
255
114
1
254
254
255
255
113
1
254
254
255
255
110
1
254
254
255
255
128
1
254
254
255
255
141
1
254
254
255
255
151
1
254
254
255
255
175
1
254
254
255
255
188
1
254
254
255
255
168
1
254
254
255
255
158
1
254
254
255
255
122
1
254
254
255
255
108
1
254
254
255
255
94
1
254
254
255
255
91
1
254
254
255
255
86
1
254
254
255
255
93
1
254
254
255
255
86
1
254
254
255
255
85
1
254
254
255
255
83
1
254
254
255
255
97
1
254
254
255
255
150
1
254
254
255
255
201
1
254
254
255
255
223
1
254
254
255
255
124
1
254
254
255
255
41
1
254
254
255
255
253
0
254
254
255
255
27
1
254
254
255
255
58
1
254
254
255
255
79
1
254
254
255
255
83
1
254
254
255
255
80
1
254
254
255
255
89
1
254
254
255
255
88
1
254
254
255
255
88
1
254
254
255
255
86
1
254
254
255
255
88
1
254
254
255
255
89
1
254
254
255
255
96
1
254
254
255
255
89
1
254
254
255
255
94
1
254
254
255
255
92
1
254
254
255
255
94
1
254
254
255
255
100
1
254
254
255
255
100
1
254
254
255
255
99
1
254
254
255
255
100
1
254
254
255
255
99
1
254
254
255
255
95
1
254
254
255
255
94
1
254
254
255
255
98
1
254
254
255
255
93
1
254
254
255
255
90
1
254
254
255
255
91
1
254
254
255
255
92
1
254
254
255
255
106
1
254
254
255
255
98
1
254
254
255
255
106
1
254
254
255
255
110
1
254
254
255
255
118
1
254
254
255
255
119
1
254
254
255
255
129
1
254
254
255
255
122
1
254
254
255
255
127
1
254
254
255
255
124
1
254
254
255
255
127
1
254
254
255
255
129
1
254
254
255
255
132
1
254
254
255
255
128
1
254
254
255
255
127
1
254
254
255
255
127
1
254
254
255
255
127
1
254
254
255
255
129
1
254
254
255
255
130
1
254
254
255
255
129
1
254
254
11
0
11
53
0
53
255
255
124
1
254
254
255
255
120
1
254
254
255
255
117
1
254
254
255
255
118
1
254
254
255
255
116
1
254
254
255
255
118
1
254
254
255
255
117
1
254
254
255
255
107
1
254
254
255
255
107
1
254
254
255
255
121
1
254
254
255
255
144
1
254
254
255
255
151
1
254
254
255
255
177
1
254
254
255
255
177
1
254
254
255
255
169
1
254
254
255
255
149
1
254
254
255
255
123
1
254
254
255
255
101
1
254
254
255
255
89
1
254
254
255
255
86
1
254
254
255
255
85
1
254
254
255
255
85
1
254
254
255
255
87
1
254
254
255
255
85
1
254
254
255
255
79
1
254
254
255
255
90
1
254
254
255
255
142
1
254
254
255
255
201
1
254
254
255
255
211
1
254
254
255
255
112
1
254
254
255
255
28
1
254
254
255
255
247
0
254
254
255
255
14
1
254
254
255
255
51
1
254
254
255
255
69
1
254
254
255
255
75
1
254
254
255
255
68
1
254
254
255
255
75
1
254
254
255
255
72
1
254
254
255
255
78
1
254
254
255
255
79
1
254
254
255
255
74
1
254
254
255
255
75
1
254
254
255
255
80
1
254
254
255
255
79
1
254
254
255
255
78
1
254
254
255
255
82
1
254
254
255
255
84
1
254
254
255
255
79
1
254
254
255
255
84
1
254
254
255
255
91
1
254
254
255
255
84
1
254
254
255
255
85
1
254
254
255
255
83
1
254
254
255
255
76
1
254
254
255
255
79
1
254
254
255
255
80
1
254
254
255
255
78
1
254
254
255
255
81
1
254
254
255
255
85
1
254
254
255
255
82
1
254
254
255
255
91
1
254
254
255
255
92
1
254
254
255
255
101
1
254
254
255
255
105
1
254
254
255
255
113
1
254
254
255
255
114
1
254
254
255
255
121
1
254
254
255
255
117
1
254
254
255
255
121
1
254
254
255
255
121
1
254
254
255
255
126
1
254
254
255
255
120
1
254
254
255
255
129
1
254
254
255
255
123
1
254
254
255
255
122
1
254
254
255
255
128
1
254
254
255
255
124
1
254
254
255
255
129
1
254
254
48
55
57
51
48
48
255
255
120
1
254
254
255
255
120
1
254
254
255
255
123
1
254
254
255
255
120
1
254
254
255
255
117
1
254
254
255
255
114
1
254
254
255
255
119
1
254
254
255
255
115
1
254
254
255
255
122
1
254
254
255
255
129
1
254
254
255
255
146
1
254
254
255
255
153
1
254
254
255
255
181
1
254
254
255
255
191
1
254
254
255
255
185
1
254
254
255
255
166
1
254
254
255
255
135
1
254
254
255
255
120
1
254
254
255
255
104
1
254
254
255
255
109
1
254
254
255
255
104
1
254
254
255
255
103
1
254
254
255
255
106
1
254
254
255
255
101
1
254
254
255
255
103
1
254
254
255
255
137
1
254
254
255
255
171
1
254
254
255
255
210
1
254
254
255
255
208
1
254
254
255
255
110
1
254
254
255
255
78
1
254
254
255
255
35
1
254
254
255
255
47
1
254
254
255
255
71
1
254
254
255
255
103
1
254
254
255
255
112
1
254
254
255
255
117
1
254
254
255
255
114
1
254
254
255
255
116
1
254
254
11
0
11
53
0
53
255
255
121
1
254
254
255
255
120
1
254
254
255
255
125
1
254
254
255
255
126
1
254
254
255
255
126
1
254
254
255
255
132
1
254
254
255
255
131
1
254
254
255
255
134
1
254
254
255
255
136
1
254
254
255
255
137
1
254
254
255
255
144
1
254
254
255
255
142
1
254
254
255
255
136
1
254
254
255
255
130
1
254
254
255
255
129
1
254
254
255
255
126
1
254
254
255
255
132
1
254
254
255
255
130
1
254
254
255
255
135
1
254
254
255
255
130
1
254
254
255
255
131
1
254
254
255
255
137
1
254
254
255
255
144
1
254
254
255
255
144
1
254
254
255
255
148
1
254
254
255
255
152
1
254
254
255
255
156
1
254
254
255
255
158
1
254
254
255
255
155
1
254
254
255
255
151
1
254
254
255
255
151
1
254
254
255
255
150
1
254
254
255
255
158
1
254
254
255
255
153
1
254
254
255
255
149
1
254
254
255
255
146
1
254
254
255
255
147
1
254
254
255
255
143
1
254
254
255
255
148
1
254
254
255
255
145
1
254
254
255
255
141
1
254
254
255
255
134
1
254
254
255
255
135
1
254
254
255
255
129
1
254
254
255
255
133
1
254
254
255
255
128
1
254
254
255
255
126
1
254
254
255
255
122
1
254
254
255
255
122
1
254
254
255
255
125
1
254
254
255
255
147
1
254
254
255
255
152
1
254
254
255
255
169
1
254
254
255
255
183
1
254
254
255
255
181
1
254
254
255
255
158
1
254
254
255
255
133
1
254
254
255
255
112
1
254
254
255
255
91
1
254
254
255
255
85
1
254
254
255
255
88
1
254
254
255
255
87
1
254
254
255
255
82
1
254
254
255
255
83
1
254
254
255
255
76
1
254
254
255
255
84
1
254
254
255
255
129
1
254
254
255
255
186
1
254
254
255
255
202
1
254
254
255
255
121
1
254
254
255
255
56
1
254
254
255
255
253
0
254
254
255
255
0
1
254
254
255
255
33
1
254
254
255
255
54
1
254
254
255
255
67
1
254
254
255
255
63
1
254
254
255
255
64
1
254
254
255
255
67
1
254
254
255
255
64
1
254
254
255
255
64
1
254
254
255
255
67
1
254
254
255
255
67
1
254
254
255
255
68
1
254
254
255
255
72
1
254
254
255
255
71
1
254
254
255
255
67
1
254
254
255
255
69
1
254
254
255
255
70
1
254
254
255
255
72
1
254
254
255
255
73
1
254
254
255
255
77
1
254
254
255
255
71
1
254
254
255
255
69
1
254
254
255
255
69
1
254
254
255
255
70
1
254
254
255
255
63
1
254
254
255
255
66
1
254
254
255
255
64
1
254
254
255
255
66
1
254
254
255
255
66
1
254
254
255
255
75
1
254
254
255
255
73
1
254
254
255
255
85
1
254
254
255
255
83
1
254
254
255
255
89
1
254
254
255
255
96
1
254
254
255
255
100
1
254
254
255
255
99
1
254
254
255
255
104
1
254
254
255
255
99
1
254
254
255
255
100
1
254
254
255
255
104
1
254
254
255
255
96
1
254
254
255
255
95
1
254
254
255
255
98
1
254
254
255
255
94
1
254
254
255
255
95
1
254
254
255
255
96
1
254
254
255
255
90
1
254
254
255
255
91
1
254
254
11
0
11
53
0
53
255
255
86
1
254
254
255
255
86
1
254
254
255
255
82
1
254
254
255
255
83
1
254
254
255
255
85
1
254
254
255
255
80
1
254
254
255
255
80
1
254
254
255
255
79
1
254
254
255
255
77
1
254
254
255
255
80
1
254
254
255
255
86
1
254
254
255
255
100
1
254
254
255
255
114
1
254
254
255
255
127
1
254
254
255
255
147
1
254
254
255
255
145
1
254
254
255
255
133
1
254
254
255
255
105
1
254
254
255
255
89
1
254
254
255
255
67
1
254
254
255
255
55
1
254
254
255
255
59
1
254
254
255
255
55
1
254
254
255
255
58
1
254
254
255
255
51
1
254
254
255
255
51
1
254
254
255
255
52
1
254
254
255
255
95
1
254
254
255
255
149
1
254
254
255
255
195
1
254
254
255
255
142
1
254
254
255
255
42
1
254
254
255
255
222
0
254
254
255
255
234
0
254
254
255
255
8
1
254
254
255
255
39
1
254
254
255
255
49
1
254
254
255
255
51
1
254
254
255
255
51
1
254
254
255
255
54
1
254
254
255
255
54
1
254
254
255
255
56
1
254
254
255
255
54
1
254
254
255
255
61
1
254
254
255
255
65
1
254
254
255
255
60
1
254
254
255
255
65
1
254
254
255
255
69
1
254
254
255
255
64
1
254
254
255
255
68
1
254
254
255
255
75
1
254
254
255
255
70
1
254
254
255
255
71
1
254
254
255
255
71
1
254
254
255
255
70
1
254
254
255
255
71
1
254
254
255
255
69
1
254
254
255
255
66
1
254
254
255
255
66
1
254
254
255
255
68
1
254
254
255
255
68
1
254
254
255
255
72
1
254
254
255
255
74
1
254
254
255
255
76
1
254
254
255
255
85
1
254
254
255
255
92
1
254
254
255
255
97
1
254
254
255
255
103
1
254
254
255
255
106
1
254
254
255
255
102
1
254
254
255
255
104
1
254
254
255
255
105
1
254
254
255
255
111
1
254
254
255
255
101
1
254
254
255
255
108
1
254
254
255
255
105
1
254
254
255
255
104
1
254
254
255
255
101
1
254
254
48
55
57
51
48
48
255
255
104
1
254
254
255
255
103
1
254
254
255
255
100
1
254
254
255
255
105
1
254
254
255
255
99
1
254
254
255
255
99
1
254
254
255
255
92
1
254
254
255
255
98
1
254
254
255
255
97
1
254
254
255
255
96
1
254
254
255
255
94
1
254
254
255
255
93
1
254
254
255
255
91
1
254
254
255
255
92
1
254
254
255
255
96
1
254
254
255
255
97
1
254
254
255
255
107
1
254
254
255
255
131
1
254
254
255
255
136
1
254
254
255
255
162
1
254
254
255
255
172
1
254
254
255
255
152
1
254
254
255
255
128
1
254
254
255
255
107
1
254
254
255
255
89
1
254
254
255
255
75
1
254
254
255
255
75
1
254
254
255
255
76
1
254
254
255
255
73
1
254
254
255
255
73
1
254
254
255
255
75
1
254
254
255
255
71
1
254
254
255
255
93
1
254
254
255
255
154
1
254
254
255
255
203
1
254
254
255
255
189
1
254
254
255
255
83
1
254
254
255
255
5
1
254
254
255
255
242
0
254
254
255
255
23
1
254
254
11
0
11
53
0
53
255
255
69
1
254
254
255
255
66
1
254
254
255
255
67
1
254
254
255
255
67
1
254
254
255
255
74
1
254
254
255
255
70
1
254
254
255
255
72
1
254
254
255
255
71
1
254
254
255
255
76
1
254
254
255
255
72
1
254
254
255
255
80
1
254
254
255
255
79
1
254
254
255
255
80
1
254
254
255
255
80
1
254
254
255
255
80
1
254
254
255
255
85
1
254
254
255
255
80
1
254
254
255
255
81
1
254
254
255
255
75
1
254
254
255
255
75
1
254
254
255
255
78
1
254
254
255
255
76
1
254
254
255
255
74
1
254
254
255
255
74
1
254
254
255
255
76
1
254
254
255
255
75
1
254
254
255
255
77
1
254
254
255
255
89
1
254
254
255
255
90
1
254
254
255
255
96
1
254
254
255
255
98
1
254
254
255
255
106
1
254
254
255
255
110
1
254
254
255
255
108
1
254
254
255
255
111
1
254
254
255
255
110
1
254
254
255
255
111
1
254
254
255
255
111
1
254
254
255
255
114
1
254
254
255
255
112
1
254
254
255
255
112
1
254
254
255
255
109
1
254
254
255
255
111
1
254
254
255
255
113
1
254
254
255
255
113
1
254
254
255
255
115
1
254
254
255
255
114
1
254
254
255
255
107
1
254
254
255
255
109
1
254
254
255
255
116
1
254
254
255
255
104
1
254
254
255
255
102
1
254
254
255
255
101
1
254
254
255
255
100
1
254
254
255
255
99
1
254
254
255
255
106
1
254
254
255
255
95
1
254
254
255
255
100
1
254
254
255
255
96
1
254
254
255
255
99
1
254
254
255
255
96
1
254
254
255
255
104
1
254
254
255
255
106
1
254
254
255
255
117
1
254
254
255
255
132
1
254
254
255
255
146
1
254
254
255
255
166
1
254
254
255
255
165
1
254
254
255
255
152
1
254
254
255
255
125
1
254
254
255
255
104
1
254
254
255
255
94
1
254
254
255
255
84
1
254
254
255
255
82
1
254
254
255
255
81
1
254
254
255
255
82
1
254
254
255
255
81
1
254
254
255
255
79
1
254
254
255
255
91
1
254
254
255
255
128
1
254
254
255
255
171
1
254
254
255
255
204
1
254
254
255
255
131
1
254
254
255
255
68
1
254
254
255
255
15
1
254
254
255
255
11
1
254
254
255
255
31
1
254
254
255
255
59
1
254
254
255
255
79
1
254
254
255
255
84
1
254
254
255
255
82
1
254
254
255
255
81
1
254
254
255
255
80
1
254
254
255
255
82
1
254
254
255
255
83
1
254
254
255
255
93
1
254
254
255
255
85
1
254
254
255
255
91
1
254
254
255
255
88
1
254
254
255
255
93
1
254
254
255
255
95
1
254
254
255
255
100
1
254
254
255
255
96
1
254
254
255
255
97
1
254
254
255
255
100
1
254
254
255
255
97
1
254
254
255
255
101
1
254
254
255
255
95
1
254
254
255
255
94
1
254
254
255
255
92
1
254
254
255
255
94
1
254
254
255
255
90
1
254
254
255
255
93
1
254
254
255
255
94
1
254
254
255
255
95
1
254
254
255
255
97
1
254
254
255
255
106
1
254
254
255
255
107
1
254
254
255
255
114
1
254
254
255
255
118
1
254
254
255
255
114
1
254
254
11
0
11
53
0
53
255
255
116
1
254
254
255
255
112
1
254
254
255
255
109
1
254
254
255
255
112
1
254
254
255
255
114
1
254
254
255
255
109
1
254
254
255
255
109
1
254
254
255
255
112
1
254
254
255
255
109
1
254
254
255
255
111
1
254
254
255
255
104
1
254
254
255
255
105
1
254
254
255
255
101
1
254
254
255
255
99
1
254
254
255
255
99
1
254
254
255
255
102
1
254
254
255
255
92
1
254
254
255
255
90
1
254
254
255
255
90
1
254
254
255
255
87
1
254
254
255
255
85
1
254
254
255
255
90
1
254
254
255
255
90
1
254
254
255
255
85
1
254
254
255
255
85
1
254
254
255
255
92
1
254
254
255
255
111
1
254
254
255
255
126
1
254
254
255
255
140
1
254
254
255
255
150
1
254
254
255
255
145
1
254
254
255
255
124
1
254
254
255
255
98
1
254
254
255
255
81
1
254
254
255
255
69
1
254
254
255
255
58
1
254
254
255
255
57
1
254
254
255
255
59
1
254
254
255
255
61
1
254
254
255
255
56
1
254
254
255
255
51
1
254
254
255
255
67
1
254
254
255
255
122
1
254
254
255
255
167
1
254
254
255
255
185
1
254
254
255
255
98
1
254
254
255
255
31
1
254
254
255
255
239
0
254
254
255
255
254
0
254
254
255
255
22
1
254
254
255
255
48
1
254
254
255
255
54
1
254
254
255
255
55
1
254
254
255
255
52
1
254
254
255
255
59
1
254
254
255
255
59
1
254
254
255
255
59
1
254
254
255
255
60
1
254
254
255
255
62
1
254
254
255
255
63
1
254
254
255
255
65
1
254
254
255
255
69
1
254
254
255
255
69
1
254
254
255
255
68
1
254
254
255
255
70
1
254
254
255
255
73
1
254
254
255
255
79
1
254
254
255
255
73
1
254
254
255
255
79
1
254
254
255
255
71
1
254
254
255
255
73
1
254
254
255
255
65
1
254
254
255
255
73
1
254
254
255
255
72
1
254
254
255
255
73
1
254
254
255
255
75
1
254
254
255
255
74
1
254
254
48
55
57
51
48
48
255
255
101
1
254
254
255
255
101
1
254
254
255
255
108
1
254
254
255
255
112
1
254
254
255
255
110
1
254
254
255
255
113
1
254
254
255
255
110
1
254
254
255
255
112
1
254
254
255
255
112
1
254
254
255
255
115
1
254
254
255
255
115
1
254
254
255
255
113
1
254
254
255
255
116
1
254
254
255
255
114
1
254
254
255
255
111
1
254
254
255
255
116
1
254
254
255
255
110
1
254
254
255
255
113
1
254
254
255
255
108
1
254
254
255
255
111
1
254
254
255
255
110
1
254
254
255
255
105
1
254
254
255
255
106
1
254
254
255
255
104
1
254
254
255
255
102
1
254
254
255
255
102
1
254
254
255
255
106
1
254
254
255
255
99
1
254
254
255
255
103
1
254
254
255
255
98
1
254
254
255
255
98
1
254
254
255
255
101
1
254
254
255
255
104
1
254
254
255
255
101
1
254
254
255
255
100
1
254
254
255
255
115
1
254
254
255
255
132
1
254
254
255
255
145
1
254
254
255
255
173
1
254
254
255
255
173
1
254
254
255
255
160
1
254
254
11
0
11
53
0
53
255
255
103
1
254
254
255
255
89
1
254
254
255
255
85
1
254
254
255
255
80
1
254
254
255
255
87
1
254
254
255
255
85
1
254
254
255
255
82
1
254
254
255
255
81
1
254
254
255
255
101
1
254
254
255
255
145
1
254
254
255
255
198
1
254
254
255
255
228
1
254
254
255
255
135
1
254
254
255
255
46
1
254
254
255
255
246
0
254
254
255
255
17
1
254
254
255
255
49
1
254
254
255
255
77
1
254
254
255
255
76
1
254
254
255
255
77
1
254
254
255
255
80
1
254
254
255
255
82
1
254
254
255
255
78
1
254
254
255
255
84
1
254
254
255
255
80
1
254
254
255
255
83
1
254
254
255
255
86
1
254
254
255
255
89
1
254
254
255
255
85
1
254
254
255
255
87
1
254
254
255
255
86
1
254
254
255
255
86
1
254
254
255
255
92
1
254
254
255
255
93
1
254
254
255
255
93
1
254
254
255
255
95
1
254
254
255
255
90
1
254
254
255
255
92
1
254
254
255
255
92
1
254
254
255
255
88
1
254
254
255
255
86
1
254
254
255
255
88
1
254
254
255
255
83
1
254
254
255
255
87
1
254
254
255
255
93
1
254
254
255
255
103
1
254
254
255
255
100
1
254
254
255
255
106
1
254
254
255
255
111
1
254
254
255
255
121
1
254
254
255
255
114
1
254
254
255
255
122
1
254
254
255
255
116
1
254
254
255
255
118
1
254
254
255
255
120
1
254
254
255
255
123
1
254
254
255
255
118
1
254
254
255
255
125
1
254
254
255
255
116
1
254
254
255
255
115
1
254
254
255
255
114
1
254
254
255
255
122
1
254
254
255
255
115
1
254
254
255
255
116
1
254
254
255
255
110
1
254
254
255
255
113
1
254
254
255
255
114
1
254
254
255
255
109
1
254
254
255
255
105
1
254
254
255
255
111
1
254
254
255
255
101
1
254
254
255
255
101
1
254
254
255
255
108
1
254
254
255
255
101
1
254
254
255
255
100
1
254
254
255
255
101
1
254
254
255
255
100
1
254
254
255
255
96
1
254
254
255
255
100
1
254
254
255
255
97
1
254
254
255
255
96
1
254
254
255
255
100
1
254
254
255
255
94
1
254
254
255
255
97
1
254
254
255
255
97
1
254
254
255
255
109
1
254
254
255
255
128
1
254
254
255
255
143
1
254
254
255
255
161
1
254
254
255
255
166
1
254
254
255
255
150
1
254
254
255
255
121
1
254
254
255
255
97
1
254
254
255
255
86
1
254
254
255
255
75
1
254
254
255
255
73
1
254
254
255
255
75
1
254
254
255
255
70
1
254
254
255
255
70
1
254
254
255
255
70
1
254
254
255
255
76
1
254
254
255
255
107
1
254
254
255
255
168
1
254
254
255
255
211
1
254
254
255
255
164
1
254
254
255
255
62
1
254
254
255
255
247
0
254
254
255
255
246
0
254
254
255
255
23
1
254
254
255
255
49
1
254
254
255
255
60
1
254
254
255
255
59
1
254
254
255
255
65
1
254
254
255
255
61
1
254
254
255
255
65
1
254
254
255
255
66
1
254
254
255
255
67
1
254
254
255
255
71
1
254
254
255
255
70
1
254
254
255
255
67
1
254
254
255
255
67
1
254
254
11
0
11
53
0
53
255
255
74
1
254
254
255
255
74
1
254
254
255
255
73
1
254
254
255
255
77
1
254
254
255
255
82
1
254
254
255
255
79
1
254
254
255
255
78
1
254
254
255
255
75
1
254
254
255
255
76
1
254
254
255
255
76
1
254
254
255
255
76
1
254
254
255
255
70
1
254
254
255
255
75
1
254
254
255
255
79
1
254
254
255
255
79
1
254
254
255
255
86
1
254
254
255
255
92
1
254
254
255
255
98
1
254
254
255
255
102
1
254
254
255
255
109
1
254
254
255
255
109
1
254
254
255
255
111
1
254
254
255
255
117
1
254
254
255
255
107
1
254
254
255
255
111
1
254
254
255
255
116
1
254
254
255
255
118
1
254
254
255
255
114
1
254
254
255
255
120
1
254
254
255
255
115
1
254
254
255
255
115
1
254
254
255
255
117
1
254
254
255
255
125
1
254
254
255
255
112
1
254
254
255
255
118
1
254
254
255
255
112
1
254
254
255
255
114
1
254
254
255
255
108
1
254
254
255
255
109
1
254
254
255
255
107
1
254
254
255
255
109
1
254
254
255
255
106
1
254
254
255
255
104
1
254
254
255
255
107
1
254
254
255
255
102
1
254
254
255
255
105
1
254
254
255
255
104
1
254
254
255
255
99
1
254
254
255
255
101
1
254
254
255
255
102
1
254
254
255
255
107
1
254
254
255
255
107
1
254
254
255
255
119
1
254
254
255
255
136
1
254
254
255
255
150
1
254
254
255
255
175
1
254
254
255
255
174
1
254
254
255
255
152
1
254
254
255
255
127
1
254
254
255
255
112
1
254
254
255
255
99
1
254
254
255
255
84
1
254
254
255
255
89
1
254
254
255
255
82
1
254
254
255
255
84
1
254
254
255
255
84
1
254
254
255
255
85
1
254
254
255
255
92
1
254
254
255
255
134
1
254
254
255
255
173
1
254
254
255
255
203
1
254
254
255
255
133
1
254
254
255
255
75
1
254
254
255
255
21
1
254
254
255
255
10
1
254
254
255
255
28
1
254
254
48
55
57
51
48
48
255
255
81
1
254
254
255
255
75
1
254
254
255
255
80
1
254
254
255
255
78
1
254
254
255
255
82
1
254
254
255
255
80
1
254
254
255
255
80
1
254
254
255
255
82
1
254
254
255
255
80
1
254
254
255
255
78
1
254
254
255
255
87
1
254
254
255
255
83
1
254
254
255
255
86
1
254
254
255
255
87
1
254
254
255
255
83
1
254
254
255
255
80
1
254
254
255
255
83
1
254
254
255
255
77
1
254
254
255
255
74
1
254
254
255
255
73
1
254
254
255
255
71
1
254
254
255
255
79
1
254
254
255
255
75
1
254
254
255
255
78
1
254
254
255
255
79
1
254
254
255
255
84
1
254
254
255
255
85
1
254
254
255
255
91
1
254
254
255
255
97
1
254
254
255
255
97
1
254
254
255
255
100
1
254
254
255
255
103
1
254
254
255
255
103
1
254
254
255
255
104
1
254
254
255
255
101
1
254
254
255
255
101
1
254
254
255
255
98
1
254
254
255
255
98
1
254
254
255
255
104
1
254
254
255
255
95
1
254
254
255
255
101
1
254
254
255
255
98
1
254
254
11
0
11
53
0
53
255
255
99
1
254
254
255
255
95
1
254
254
255
255
94
1
254
254
255
255
93
1
254
254
255
255
99
1
254
254
255
255
93
1
254
254
255
255
92
1
254
254
255
255
87
1
254
254
255
255
88
1
254
254
255
255
89
1
254
254
255
255
83
1
254
254
255
255
86
1
254
254
255
255
84
1
254
254
255
255
84
1
254
254
255
255
83
1
254
254
255
255
89
1
254
254
255
255
86
1
254
254
255
255
90
1
254
254
255
255
95
1
254
254
255
255
115
1
254
254
255
255
125
1
254
254
255
255
149
1
254
254
255
255
159
1
254
254
255
255
151
1
254
254
255
255
134
1
254
254
255
255
110
1
254
254
255
255
93
1
254
254
255
255
76
1
254
254
255
255
67
1
254
254
255
255
71
1
254
254
255
255
67
1
254
254
255
255
70
1
254
254
255
255
71
1
254
254
255
255
71
1
254
254
255
255
81
1
254
254
255
255
126
1
254
254
255
255
178
1
254
254
255
255
206
1
254
254
255
255
115
1
254
254
255
255
41
1
254
254
255
255
242
0
254
254
255
255
5
1
254
254
255
255
30
1
254
254
255
255
63
1
254
254
255
255
63
1
254
254
255
255
63
1
254
254
255
255
63
1
254
254
255
255
67
1
254
254
255
255
67
1
254
254
255
255
74
1
254
254
255
255
71
1
254
254
255
255
74
1
254
254
255
255
74
1
254
254
255
255
79
1
254
254
255
255
76
1
254
254
255
255
86
1
254
254
255
255
83
1
254
254
255
255
84
1
254
254
255
255
86
1
254
254
255
255
87
1
254
254
255
255
94
1
254
254
255
255
86
1
254
254
255
255
90
1
254
254
255
255
86
1
254
254
255
255
84
1
254
254
255
255
83
1
254
254
255
255
86
1
254
254
255
255
88
1
254
254
255
255
87
1
254
254
255
255
89
1
254
254
255
255
90
1
254
254
255
255
95
1
254
254
255
255
106
1
254
254
255
255
110
1
254
254
255
255
113
1
254
254
255
255
116
1
254
254
255
255
125
1
254
254
255
255
123
1
254
254
255
255
122
1
254
254
255
255
130
1
254
254
255
255
123
1
254
254
255
255
123
1
254
254
255
255
128
1
254
254
255
255
127
1
254
254
255
255
125
1
254
254
255
255
127
1
254
254
255
255
123
1
254
254
255
255
121
1
254
254
255
255
126
1
254
254
255
255
124
1
254
254
255
255
127
1
254
254
255
255
127
1
254
254
255
255
119
1
254
254
255
255
118
1
254
254
255
255
126
1
254
254
255
255
116
1
254
254
255
255
117
1
254
254
255
255
116
1
254
254
255
255
115
1
254
254
255
255
110
1
254
254
255
255
118
1
254
254
255
255
111
1
254
254
255
255
118
1
254
254
255
255
118
1
254
254
255
255
114
1
254
254
255
255
109
1
254
254
255
255
118
1
254
254
255
255
115
1
254
254
255
255
115
1
254
254
255
255
128
1
254
254
255
255
146
1
254
254
255
255
164
1
254
254
255
255
180
1
254
254
255
255
194
1
254
254
255
255
181
1
254
254
255
255
160
1
254
254
255
255
139
1
254
254
255
255
125
1
254
254
255
255
109
1
254
254
255
255
110
1
254
254
255
255
105
1
254
254
11
0
11
53
0
53
255
255
113
1
254
254
255
255
103
1
254
254
255
255
114
1
254
254
255
255
160
1
254
254
255
255
213
1
254
254
255
255
2
2
254
254
255
255
199
1
254
254
255
255
99
1
254
254
255
255
29
1
254
254
255
255
47
1
254
254
255
255
77
1
254
254
255
255
101
1
254
254
255
255
111
1
254
254
255
255
107
1
254
254
255
255
113
1
254
254
255
255
116
1
254
254
255
255
118
1
254
254
255
255
113
1
254
254
255
255
118
1
254
254
255
255
114
1
254
254
255
255
123
1
254
254
255
255
120
1
254
254
255
255
121
1
254
254
255
255
119
1
254
254
255
255
124
1
254
254
255
255
122
1
254
254
255
255
130
1
254
254
255
255
123
1
254
254
255
255
128
1
254
254
255
255
123
1
254
254
255
255
125
1
254
254
255
255
123
1
254
254
255
255
123
1
254
254
255
255
118
1
254
254
255
255
118
1
254
254
255
255
118
1
254
254
255
255
120
1
254
254
255
255
118
1
254
254
255
255
120
1
254
254
255
255
126
1
254
254
255
255
131
1
254
254
255
255
131
1
254
254
255
255
139
1
254
254
255
255
145
1
254
254
255
255
142
1
254
254
255
255
146
1
254
254
255
255
138
1
254
254
255
255
140
1
254
254
255
255
141
1
254
254
255
255
143
1
254
254
255
255
137
1
254
254
255
255
138
1
254
254
255
255
135
1
254
254
255
255
134
1
254
254
255
255
140
1
254
254
255
255
132
1
254
254
255
255
129
1
254
254
255
255
128
1
254
254
255
255
124
1
254
254
255
255
125
1
254
254
255
255
126
1
254
254
255
255
117
1
254
254
255
255
112
1
254
254
255
255
108
1
254
254
255
255
106
1
254
254
255
255
105
1
254
254
255
255
105
1
254
254
255
255
97
1
254
254
255
255
98
1
254
254
255
255
93
1
254
254
255
255
87
1
254
254
255
255
89
1
254
254
255
255
86
1
254
254
255
255
85
1
254
254
255
255
82
1
254
254
48
55
57
51
48
48
255
255
137
1
254
254
255
255
145
1
254
254
255
255
121
1
254
254
255
255
98
1
254
254
255
255
70
1
254
254
255
255
62
1
254
254
255
255
47
1
254
254
255
255
43
1
254
254
255
255
37
1
254
254
255
255
38
1
254
254
255
255
32
1
254
254
255
255
37
1
254
254
255
255
33
1
254
254
255
255
69
1
254
254
255
255
114
1
254
254
255
255
146
1
254
254
255
255
92
1
254
254
255
255
12
1
254
254
255
255
224
0
254
254
255
255
197
0
254
254
255
255
214
0
254
254
255
255
244
0
254
254
255
255
12
1
254
254
255
255
14
1
254
254
255
255
9
1
254
254
255
255
16
1
254
254
255
255
11
1
254
254
255
255
16
1
254
254
255
255
14
1
254
254
255
255
12
1
254
254
255
255
14
1
254
254
255
255
17
1
254
254
255
255
16
1
254
254
255
255
24
1
254
254
255
255
18
1
254
254
255
255
20
1
254
254
255
255
18
1
254
254
255
255
23
1
254
254
255
255
16
1
254
254
255
255
20
1
254
254
255
255
19
1
254
254
255
255
16
1
254
254
255
255
17
1
254
254
11
0
11
53
0
53
255
255
9
1
254
254
255
255
11
1
254
254
255
255
11
1
254
254
255
255
18
1
254
254
255
255
17
1
254
254
255
255
20
1
254
254
255
255
25
1
254
254
255
255
32
1
254
254
255
255
33
1
254
254
255
255
43
1
254
254
255
255
40
1
254
254
255
255
48
1
254
254
255
255
39
1
254
254
255
255
44
1
254
254
255
255
45
1
254
254
255
255
49
1
254
254
255
255
45
1
254
254
255
255
50
1
254
254
255
255
47
1
254
254
255
255
47
1
254
254
255
255
50
1
254
254
255
255
51
1
254
254
255
255
50
1
254
254
255
255
51
1
254
254
255
255
46
1
254
254
255
255
47
1
254
254
255
255
50
1
254
254
255
255
47
1
254
254
255
255
43
1
254
254
255
255
46
1
254
254
255
255
46
1
254
254
255
255
46
1
254
254
255
255
46
1
254
254
255
255
45
1
254
254
255
255
45
1
254
254
255
255
44
1
254
254
255
255
46
1
254
254
255
255
59
1
254
254
255
255
72
1
254
254
255
255
87
1
254
254
255
255
102
1
254
254
255
255
121
1
254
254
255
255
117
1
254
254
255
255
99
1
254
254
255
255
71
1
254
254
255
255
62
1
254
254
255
255
37
1
254
254
255
255
32
1
254
254
255
255
33
1
254
254
255
255
37
1
254
254
255
255
34
1
254
254
255
255
31
1
254
254
255
255
27
1
254
254
255
255
42
1
254
254
255
255
92
1
254
254
255
255
134
1
254
254
255
255
163
1
254
254
255
255
81
1
254
254
255
255
9
1
254
254
255
255
211
0
254
254
255
255
220
0
254
254
255
255
243
0
254
254
255
255
14
1
254
254
255
255
20
1
254
254
255
255
21
1
254
254
255
255
21
1
254
254
255
255
25
1
254
254
255
255
26
1
254
254
255
255
32
1
254
254
255
255
27
1
254
254
255
255
30
1
254
254
255
255
36
1
254
254
255
255
38
1
254
254
255
255
36
1
254
254
255
255
39
1
254
254
255
255
38
1
254
254
255
255
44
1
254
254
255
255
48
1
254
254
255
255
49
1
254
254
255
255
53
1
254
254
255
255
56
1
254
254
255
255
52
1
254
254
255
255
55
1
254
254
255
255
53
1
254
254
255
255
53
1
254
254
255
255
54
1
254
254
255
255
58
1
254
254
255
255
53
1
254
254
255
255
60
1
254
254
255
255
65
1
254
254
255
255
71
1
254
254
255
255
76
1
254
254
255
255
82
1
254
254
255
255
85
1
254
254
255
255
95
1
254
254
255
255
95
1
254
254
255
255
96
1
254
254
255
255
96
1
254
254
255
255
104
1
254
254
255
255
100
1
254
254
255
255
110
1
254
254
255
255
107
1
254
254
255
255
106
1
254
254
255
255
107
1
254
254
255
255
108
1
254
254
255
255
114
1
254
254
255
255
107
1
254
254
255
255
109
1
254
254
255
255
105
1
254
254
255
255
104
1
254
254
255
255
106
1
254
254
255
255
112
1
254
254
255
255
103
1
254
254
255
255
100
1
254
254
255
255
98
1
254
254
255
255
96
1
254
254
255
255
97
1
254
254
255
255
103
1
254
254
255
255
97
1
254
254
255
255
98
1
254
254
255
255
96
1
254
254
11
0
11
53
0
53
255
255
104
1
254
254
255
255
123
1
254
254
255
255
142
1
254
254
255
255
162
1
254
254
255
255
181
1
254
254
255
255
176
1
254
254
255
255
163
1
254
254
255
255
137
1
254
254
255
255
119
1
254
254
255
255
103
1
254
254
255
255
97
1
254
254
255
255
90
1
254
254
255
255
94
1
254
254
255
255
96
1
254
254
255
255
98
1
254
254
255
255
92
1
254
254
255
255
101
1
254
254
255
255
138
1
254
254
255
255
197
1
254
254
255
255
244
1
254
254
255
255
183
1
254
254
255
255
78
1
254
254
255
255
14
1
254
254
255
255
26
1
254
254
255
255
60
1
254
254
255
255
87
1
254
254
255
255
104
1
254
254
255
255
98
1
254
254
255
255
102
1
254
254
255
255
105
1
254
254
255
255
103
1
254
254
255
255
112
1
254
254
255
255
110
1
254
254
255
255
114
1
254
254
255
255
114
1
254
254
255
255
116
1
254
254
255
255
118
1
254
254
255
255
124
1
254
254
255
255
119
1
254
254
255
255
125
1
254
254
255
255
126
1
254
254
255
255
128
1
254
254
255
255
125
1
254
254
255
255
133
1
254
254
255
255
130
1
254
254
255
255
123
1
254
254
255
255
119
1
254
254
255
255
124
1
254
254
255
255
126
1
254
254
255
255
125
1
254
254
255
255
124
1
254
254
255
255
120
1
254
254
255
255
122
1
254
254
255
255
129
1
254
254
255
255
137
1
254
254
255
255
141
1
254
254
255
255
141
1
254
254
255
255
150
1
254
254
255
255
155
1
254
254
255
255
150
1
254
254
255
255
153
1
254
254
255
255
149
1
254
254
255
255
148
1
254
254
255
255
149
1
254
254
255
255
146
1
254
254
255
255
148
1
254
254
255
255
141
1
254
254
255
255
145
1
254
254
255
255
144
1
254
254
255
255
146
1
254
254
255
255
142
1
254
254
255
255
150
1
254
254
255
255
141
1
254
254
255
255
141
1
254
254
48
55
57
51
48
48
255
255
135
1
254
254
255
255
126
1
254
254
255
255
128
1
254
254
255
255
128
1
254
254
255
255
128
1
254
254
255
255
123
1
254
254
255
255
131
1
254
254
255
255
126
1
254
254
255
255
131
1
254
254
255
255
143
1
254
254
255
255
159
1
254
254
255
255
177
1
254
254
255
255
189
1
254
254
255
255
188
1
254
254
255
255
178
1
254
254
255
255
142
1
254
254
255
255
130
1
254
254
255
255
112
1
254
254
255
255
105
1
254
254
255
255
102
1
254
254
255
255
104
1
254
254
255
255
103
1
254
254
255
255
98
1
254
254
255
255
102
1
254
254
255
255
109
1
254
254
255
255
147
1
254
254
255
255
202
1
254
254
255
255
246
1
254
254
255
255
171
1
254
254
255
255
92
1
254
254
255
255
36
1
254
254
255
255
31
1
254
254
255
255
55
1
254
254
255
255
82
1
254
254
255
255
99
1
254
254
255
255
98
1
254
254
255
255
100
1
254
254
255
255
102
1
254
254
255
255
99
1
254
254
255
255
101
1
254
254
255
255
102
1
254
254
255
255
105
1
254
254
255
255
101
1
254
254
255
255
104
1
254
254
11
0
11
53
0
53
255
255
107
1
254
254
255
255
105
1
254
254
255
255
108
1
254
254
255
255
119
1
254
254
255
255
111
1
254
254
255
255
113
1
254
254
255
255
108
1
254
254
255
255
105
1
254
254
255
255
104
1
254
254
255
255
106
1
254
254
255
255
100
1
254
254
255
255
99
1
254
254
255
255
103
1
254
254
255
255
103
1
254
254
255
255
108
1
254
254
255
255
112
1
254
254
255
255
118
1
254
254
255
255
121
1
254
254
255
255
125
1
254
254
255
255
132
1
254
254
255
255
139
1
254
254
255
255
140
1
254
254
255
255
139
1
254
254
255
255
136
1
254
254
255
255
138
1
254
254
255
255
137
1
254
254
255
255
143
1
254
254
255
255
143
1
254
254
255
255
137
1
254
254
255
255
135
1
254
254
255
255
140
1
254
254
255
255
142
1
254
254
255
255
135
1
254
254
255
255
138
1
254
254
255
255
133
1
254
254
255
255
131
1
254
254
255
255
130
1
254
254
255
255
128
1
254
254
255
255
128
1
254
254
255
255
125
1
254
254
255
255
120
1
254
254
255
255
117
1
254
254
255
255
119
1
254
254
255
255
118
1
254
254
255
255
118
1
254
254
255
255
131
1
254
254
255
255
143
1
254
254
255
255
154
1
254
254
255
255
184
1
254
254
255
255
168
1
254
254
255
255
159
1
254
254
255
255
130
1
254
254
255
255
113
1
254
254
255
255
89
1
254
254
255
255
86
1
254
254
255
255
77
1
254
254
255
255
81
1
254
254
255
255
75
1
254
254
255
255
78
1
254
254
255
255
76
1
254
254
255
255
82
1
254
254
255
255
114
1
254
254
255
255
164
1
254
254
255
255
200
1
254
254
255
255
142
1
254
254
255
255
73
1
254
254
255
255
27
1
254
254
255
255
2
1
254
254
255
255
18
1
254
254
255
255
39
1
254
254
255
255
63
1
254
254
255
255
66
1
254
254
255
255
61
1
254
254
255
255
62
1
254
254
255
255
63
1
254
254
255
255
61
1
254
254
255
255
64
1
254
254
255
255
70
1
254
254
255
255
66
1
254
254
255
255
66
1
254
254
255
255
68
1
254
254
255
255
66
1
254
254
255
255
73
1
254
254
255
255
68
1
254
254
255
255
71
1
254
254
255
255
67
1
254
254
255
255
71
1
254
254
255
255
69
1
254
254
255
255
74
1
254
254
255
255
66
1
254
254
255
255
63
1
254
254
255
255
64
1
254
254
255
255
63
1
254
254
255
255
62
1
254
254
255
255
68
1
254
254
255
255
67
1
254
254
255
255
69
1
254
254
255
255
79
1
254
254
255
255
77
1
254
254
255
255
89
1
254
254
255
255
87
1
254
254
255
255
97
1
254
254
255
255
96
1
254
254
255
255
101
1
254
254
255
255
96
1
254
254
255
255
102
1
254
254
255
255
100
1
254
254
255
255
102
1
254
254
255
255
101
1
254
254
255
255
105
1
254
254
255
255
100
1
254
254
255
255
104
1
254
254
255
255
102
1
254
254
255
255
102
1
254
254
255
255
103
1
254
254
255
255
107
1
254
254
255
255
104
1
254
254
255
255
100
1
254
254
255
255
103
1
254
254
255
255
100
1
254
254
255
255
92
1
254
254
11
0
11
53
0
53
255
255
93
1
254
254
255
255
93
1
254
254
255
255
90
1
254
254
255
255
93
1
254
254
255
255
98
1
254
254
255
255
116
1
254
254
255
255
134
1
254
254
255
255
150
1
254
254
255
255
169
1
254
254
255
255
157
1
254
254
255
255
138
1
254
254
255
255
110
1
254
254
255
255
93
1
254
254
255
255
78
1
254
254
255
255
75
1
254
254
255
255
71
1
254
254
255
255
70
1
254
254
255
255
73
1
254
254
255
255
72
1
254
254
255
255
68
1
254
254
255
255
87
1
254
254
255
255
135
1
254
254
255
255
182
1
254
254
255
255
209
1
254
254
255
255
117
1
254
254
255
255
42
1
254
254
255
255
240
0
254
254
255
255
9
1
254
254
255
255
36
1
254
254
255
255
63
1
254
254
255
255
67
1
254
254
255
255
71
1
254
254
255
255
70
1
254
254
255
255
71
1
254
254
255
255
70
1
254
254
255
255
76
1
254
254
255
255
73
1
254
254
255
255
83
1
254
254
255
255
77
1
254
254
255
255
80
1
254
254
255
255
78
1
254
254
255
255
83
1
254
254
255
255
84
1
254
254
255
255
87
1
254
254
255
255
86
1
254
254
255
255
88
1
254
254
255
255
90
1
254
254
255
255
87
1
254
254
255
255
91
1
254
254
255
255
87
1
254
254
255
255
86
1
254
254
255
255
84
1
254
254
255
255
83
1
254
254
255
255
84
1
254
254
255
255
86
1
254
254
255
255
91
1
254
254
255
255
88
1
254
254
255
255
95
1
254
254
255
255
98
1
254
254
255
255
110
1
254
254
255
255
109
1
254
254
255
255
114
1
254
254
255
255
113
1
254
254
255
255
115
1
254
254
255
255
114
1
254
254
255
255
123
1
254
254
255
255
114
1
254
254
255
255
118
1
254
254
255
255
115
1
254
254
255
255
115
1
254
254
255
255
118
1
254
254
255
255
120
1
254
254
255
255
116
1
254
254
48
55
57
51
48
48
255
255
119
1
254
254
255
255
112
1
254
254
255
255
113
1
254
254
255
255
113
1
254
254
255
255
107
1
254
254
255
255
105
1
254
254
255
255
110
1
254
254
255
255
103
1
254
254
255
255
103
1
254
254
255
255
101
1
254
254
255
255
102
1
254
254
255
255
103
1
254
254
255
255
120
1
254
254
255
255
134
1
254
254
255
255
145
1
254
254
255
255
166
1
254
254
255
255
166
1
254
254
255
255
159
1
254
254
255
255
134
1
254
254
255
255
112
1
254
254
255
255
92
1
254
254
255
255
78
1
254
254
255
255
77
1
254
254
255
255
82
1
254
254
255
255
78
1
254
254
255
255
77
1
254
254
255
255
77
1
254
254
255
255
73
1
254
254
255
255
98
1
254
254
255
255
159
1
254
254
255
255
210
1
254
254
255
255
195
1
254
254
255
255
95
1
254
254
255
255
4
1
254
254
255
255
245
0
254
254
255
255
17
1
254
254
255
255
51
1
254
254
255
255
65
1
254
254
255
255
67
1
254
254
255
255
69
1
254
254
255
255
74
1
254
254
255
255
71
1
254
254
255
255
71
1
254
254
255
255
73
1
254
254
255
255
74
1
254
254
11
0
11
53
0
53
255
255
72
1
254
254
255
255
77
1
254
254
255
255
81
1
254
254
255
255
76
1
254
254
255
255
83
1
254
254
255
255
81
1
254
254
255
255
80
1
254
254
255
255
86
1
254
254
255
255
85
1
254
254
255
255
75
1
254
254
255
255
80
1
254
254
255
255
75
1
254
254
255
255
76
1
254
254
255
255
72
1
254
254
255
255
77
1
254
254
255
255
74
1
254
254
255
255
81
1
254
254
255
255
78
1
254
254
255
255
82
1
254
254
255
255
93
1
254
254
255
255
98
1
254
254
255
255
100
1
254
254
255
255
108
1
254
254
255
255
106
1
254
254
255
255
109
1
254
254
255
255
120
1
254
254
255
255
112
1
254
254
255
255
107
1
254
254
255
255
114
1
254
254
255
255
114
1
254
254
255
255
113
1
254
254
255
255
118
1
254
254
255
255
114
1
254
254
255
255
113
1
254
254
255
255
114
1
254
254
255
255
113
1
254
254
255
255
119
1
254
254
255
255
115
1
254
254
255
255
116
1
254
254
255
255
107
1
254
254
255
255
108
1
254
254
255
255
105
1
254
254
255
255
110
1
254
254
255
255
103
1
254
254
255
255
109
1
254
254
255
255
98
1
254
254
255
255
100
1
254
254
255
255
100
1
254
254
255
255
112
1
254
254
255
255
117
1
254
254
255
255
137
1
254
254
255
255
144
1
254
254
255
255
167
1
254
254
255
255
165
1
254
254
255
255
153
1
254
254
255
255
126
1
254
254
255
255
110
1
254
254
255
255
88
1
254
254
255
255
76
1
254
254
255
255
81
1
254
254
255
255
81
1
254
254
255
255
78
1
254
254
255
255
77
1
254
254
255
255
71
1
254
254
255
255
85
1
254
254
255
255
124
1
254
254
255
255
159
1
254
254
255
255
192
1
254
254
255
255
129
1
254
254
255
255
61
1
254
254
255
255
11
1
254
254
255
255
0
1
254
254
255
255
19
1
254
254
255
255
43
1
254
254
255
255
64
1
254
254
255
255
66
1
254
254
255
255
70
1
254
254
255
255
66
1
254
254
255
255
70
1
254
254
255
255
69
1
254
254
255
255
69
1
254
254
255
255
72
1
254
254
255
255
79
1
254
254
255
255
75
1
254
254
255
255
76
1
254
254
255
255
76
1
254
254
255
255
75
1
254
254
255
255
76
1
254
254
255
255
85
1
254
254
255
255
83
1
254
254
255
255
81
1
254
254
255
255
77
1
254
254
255
255
74
1
254
254
255
255
78
1
254
254
255
255
74
1
254
254
255
255
73
1
254
254
255
255
66
1
254
254
255
255
69
1
254
254
255
255
71
1
254
254
255
255
73
1
254
254
255
255
74
1
254
254
255
255
78
1
254
254
255
255
79
1
254
254
255
255
85
1
254
254
255
255
87
1
254
254
255
255
94
1
254
254
255
255
94
1
254
254
255
255
93
1
254
254
255
255
91
1
254
254
255
255
93
1
254
254
255
255
92
1
254
254
255
255
92
1
254
254
255
255
90
1
254
254
255
255
90
1
254
254
255
255
89
1
254
254
255
255
87
1
254
254
255
255
91
1
254
254
255
255
89
1
254
254
255
255
84
1
254
254
255
255
82
1
254
254
255
255
82
1
254
254
11
0
11
53
0
53
255
255
75
1
254
254
255
255
76
1
254
254
255
255
73
1
254
254
255
255
70
1
254
254
255
255
68
1
254
254
255
255
69
1
254
254
255
255
67
1
254
254
255
255
81
1
254
254
255
255
98
1
254
254
255
255
112
1
254
254
255
255
130
1
254
254
255
255
132
1
254
254
255
255
120
1
254
254
255
255
97
1
254
254
255
255
75
1
254
254
255
255
63
1
254
254
255
255
40
1
254
254
255
255
43
1
254
254
255
255
47
1
254
254
255
255
44
1
254
254
255
255
38
1
254
254
255
255
41
1
254
254
255
255
36
1
254
254
255
255
63
1
254
254
255
255
113
1
254
254
255
255
161
1
254
254
255
255
145
1
254
254
255
255
58
1
254
254
255
255
5
1
254
254
255
255
222
0
254
254
255
255
237
0
254
254
255
255
14
1
254
254
255
255
35
1
254
254
255
255
38
1
254
254
255
255
35
1
254
254
255
255
39
1
254
254
255
255
44
1
254
254
255
255
45
1
254
254
255
255
48
1
254
254
255
255
48
1
254
254
255
255
51
1
254
254
255
255
52
1
254
254
255
255
56
1
254
254
255
255
59
1
254
254
255
255
60
1
254
254
255
255
65
1
254
254
255
255
64
1
254
254
255
255
66
1
254
254
255
255
72
1
254
254
255
255
76
1
254
254
255
255
72
1
254
254
255
255
70
1
254
254
255
255
69
1
254
254
255
255
71
1
254
254
255
255
69
1
254
254
255
255
77
1
254
254
255
255
74
1
254
254
255
255
78
1
254
254
255
255
87
1
254
254
255
255
90
1
254
254
255
255
95
1
254
254
255
255
103
1
254
254
255
255
110
1
254
254
255
255
117
1
254
254
255
255
127
1
254
254
255
255
129
1
254
254
255
255
130
1
254
254
255
255
134
1
254
254
255
255
133
1
254
254
255
255
131
1
254
254
255
255
140
1
254
254
255
255
136
1
254
254
48
55
57
51
48
48
255
255
141
1
254
254
255
255
149
1
254
254
255
255
141
1
254
254
255
255
147
1
254
254
255
255
150
1
254
254
255
255
148
1
254
254
255
255
145
1
254
254
255
255
154
1
254
254
255
255
142
1
254
254
255
255
143
1
254
254
255
255
143
1
254
254
255
255
144
1
254
254
255
255
141
1
254
254
255
255
151
1
254
254
255
255
154
1
254
254
255
255
173
1
254
254
255
255
183
1
254
254
255
255
205
1
254
254
255
255
225
1
254
254
255
255
216
1
254
254
255
255
196
1
254
254
255
255
167
1
254
254
255
255
152
1
254
254
255
255
139
1
254
254
255
255
133
1
254
254
255
255
127
1
254
254
255
255
128
1
254
254
255
255
126
1
254
254
255
255
126
1
254
254
255
255
128
1
254
254
255
255
134
1
254
254
255
255
179
1
254
254
255
255
229
1
254
254
255
255
12
2
254
254
255
255
183
1
254
254
255
255
104
1
254
254
255
255
32
1
254
254
255
255
54
1
254
254
255
255
87
1
254
254
255
255
111
1
254
254
255
255
118
1
254
254
255
255
124
1
254
254
255
255
118
1
254
254
255
255
118
1
254
254
255
255
121
1
254
254
255
255
123
1
254
254
11
0
11
53
0
53
255
255
122
1
254
254
255
255
124
1
254
254
255
255
133
1
254
254
255
255
125
1
254
254
255
255
131
1
254
254
255
255
131
1
254
254
255
255
130
1
254
254
255
255
131
1
254
254
255
255
143
1
254
254
255
255
131
1
254
254
255
255
127
1
254
254
255
255
123
1
254
254
255
255
123
1
254
254
255
255
124
1
254
254
255
255
129
1
254
254
255
255
120
1
254
254
255
255
125
1
254
254
255
255
121
1
254
254
255
255
126
1
254
254
255
255
130
1
254
254
255
255
136
1
254
254
255
255
139
1
254
254
255
255
140
1
254
254
255
255
146
1
254
254
255
255
150
1
254
254
255
255
152
1
254
254
255
255
149
1
254
254
255
255
147
1
254
254
255
255
148
1
254
254
255
255
148
1
254
254
255
255
149
1
254
254
255
255
148
1
254
254
255
255
148
1
254
254
255
255
145
1
254
254
255
255
144
1
254
254
255
255
144
1
254
254
255
255
149
1
254
254
255
255
137
1
254
254
255
255
136
1
254
254
255
255
134
1
254
254
255
255
129
1
254
254
255
255
130
1
254
254
255
255
134
1
254
254
255
255
124
1
254
254
255
255
125
1
254
254
255
255
129
1
254
254
255
255
119
1
254
254
255
255
118
1
254
254
255
255
116
1
254
254
255
255
115
1
254
254
255
255
128
1
254
254
255
255
146
1
254
254
255
255
150
1
254
254
255
255
185
1
254
254
255
255
182
1
254
254
255
255
169
1
254
254
255
255
141
1
254
254
255
255
119
1
254
254
255
255
103
1
254
254
255
255
91
1
254
254
255
255
85
1
254
254
255
255
87
1
254
254
255
255
87
1
254
254
255
255
85
1
254
254
255
255
83
1
254
254
255
255
81
1
254
254
255
255
101
1
254
254
255
255
160
1
254
254
255
255
212
1
254
254
255
255
210
1
254
254
255
255
104
1
254
254
255
255
29
1
254
254
255
255
1
1
254
254
255
255
24
1
254
254
255
255
53
1
254
254
255
255
78
1
254
254
255
255
81
1
254
254
255
255
80
1
254
254
255
255
82
1
254
254
255
255
82
1
254
254
255
255
79
1
254
254
255
255
86
1
254
254
255
255
89
1
254
254
255
255
87
1
254
254
255
255
85
1
254
254
255
255
88
1
254
254
255
255
87
1
254
254
255
255
93
1
254
254
255
255
91
1
254
254
255
255
93
1
254
254
255
255
93
1
254
254
255
255
99
1
254
254
255
255
92
1
254
254
255
255
95
1
254
254
255
255
93
1
254
254
255
255
89
1
254
254
255
255
84
1
254
254
255
255
86
1
254
254
255
255
83
1
254
254
255
255
87
1
254
254
255
255
89
1
254
254
255
255
89
1
254
254
255
255
94
1
254
254
255
255
98
1
254
254
255
255
109
1
254
254
255
255
108
1
254
254
255
255
112
1
254
254
255
255
118
1
254
254
255
255
116
1
254
254
255
255
120
1
254
254
255
255
124
1
254
254
255
255
118
1
254
254
255
255
123
1
254
254
255
255
120
1
254
254
255
255
120
1
254
254
255
255
118
1
254
254
255
255
121
1
254
254
255
255
116
1
254
254
255
255
119
1
254
254
255
255
117
1
254
254
255
255
114
1
254
254
11
0
11
53
0
53
255
255
109
1
254
254
255
255
113
1
254
254
255
255
110
1
254
254
255
255
105
1
254
254
255
255
101
1
254
254
255
255
105
1
254
254
255
255
99
1
254
254
255
255
101
1
254
254
255
255
116
1
254
254
255
255
128
1
254
254
255
255
139
1
254
254
255
255
164
1
254
254
255
255
162
1
254
254
255
255
158
1
254
254
255
255
128
1
254
254
255
255
106
1
254
254
255
255
86
1
254
254
255
255
78
1
254
254
255
255
72
1
254
254
255
255
75
1
254
254
255
255
70
1
254
254
255
255
72
1
254
254
255
255
68
1
254
254
255
255
67
1
254
254
255
255
90
1
254
254
255
255
142
1
254
254
255
255
183
1
254
254
255
255
177
1
254
254
255
255
82
1
254
254
255
255
44
1
254
254
255
255
1
1
254
254
255
255
2
1
254
254
255
255
27
1
254
254
255
255
45
1
254
254
255
255
49
1
254
254
255
255
53
1
254
254
255
255
61
1
254
254
255
255
54
1
254
254
255
255
61
1
254
254
255
255
55
1
254
254
255
255
56
1
254
254
255
255
58
1
254
254
255
255
57
1
254
254
255
255
54
1
254
254
255
255
62
1
254
254
255
255
60
1
254
254
255
255
60
1
254
254
255
255
65
1
254
254
255
255
63
1
254
254
255
255
63
1
254
254
255
255
63
1
254
254
255
255
58
1
254
254
255
255
56
1
254
254
255
255
57
1
254
254
255
255
52
1
254
254
255
255
47
1
254
254
255
255
45
1
254
254
255
255
47
1
254
254
255
255
49
1
254
254
255
255
55
1
254
254
255
255
58
1
254
254
255
255
59
1
254
254
255
255
71
1
254
254
255
255
73
1
254
254
255
255
84
1
254
254
255
255
83
1
254
254
255
255
87
1
254
254
255
255
81
1
254
254
255
255
82
1
254
254
255
255
82
1
254
254
255
255
86
1
254
254
48
55
57
51
48
48
255
255
85
1
254
254
255
255
81
1
254
254
255
255
89
1
254
254
255
255
83
1
254
254
255
255
84
1
254
254
255
255
82
1
254
254
255
255
84
1
254
254
255
255
87
1
254
254
255
255
79
1
254
254
255
255
81
1
254
254
255
255
81
1
254
254
255
255
75
1
254
254
255
255
72
1
254
254
255
255
79
1
254
254
255
255
85
1
254
254
255
255
100
1
254
254
255
255
115
1
254
254
255
255
129
1
254
254
255
255
141
1
254
254
255
255
139
1
254
254
255
255
119
1
254
254
255
255
85
1
254
254
255
255
71
1
254
254
255
255
55
1
254
254
255
255
55
1
254
254
255
255
50
1
254
254
255
255
49
1
254
254
255
255
49
1
254
254
255
255
51
1
254
254
255
255
47
1
254
254
255
255
66
1
254
254
255
255
114
1
254
254
255
255
161
1
254
254
255
255
182
1
254
254
255
255
93
1
254
254
255
255
17
1
254
254
255
255
221
0
254
254
255
255
244
0
254
254
255
255
16
1
254
254
255
255
46
1
254
254
255
255
49
1
254
254
255
255
53
1
254
254
255
255
54
1
254
254
255
255
56
1
254
254
255
255
55
1
254
254
255
255
58
1
254
254
255
255
60
1
254
254
11
0
11
53
0
53
255
255
67
1
254
254
255
255
63
1
254
254
255
255
74
1
254
254
255
255
68
1
254
254
255
255
72
1
254
254
255
255
72
1
254
254
255
255
73
1
254
254
255
255
77
1
254
254
255
255
72
1
254
254
255
255
75
1
254
254
255
255
74
1
254
254
255
255
69
1
254
254
255
255
72
1
254
254
255
255
80
1
254
254
255
255
73
1
254
254
255
255
75
1
254
254
255
255
78
1
254
254
255
255
76
1
254
254
255
255
82
1
254
254
255
255
96
1
254
254
255
255
93
1
254
254
255
255
101
1
254
254
255
255
106
1
254
254
255
255
107
1
254
254
255
255
109
1
254
254
255
255
111
1
254
254
255
255
109
1
254
254
255
255
109
1
254
254
255
255
113
1
254
254
255
255
111
1
254
254
255
255
115
1
254
254
255
255
117
1
254
254
255
255
114
1
254
254
255
255
113
1
254
254
255
255
111
1
254
254
255
255
112
1
254
254
255
255
112
1
254
254
255
255
117
1
254
254
255
255
109
1
254
254
255
255
108
1
254
254
255
255
107
1
254
254
255
255
109
1
254
254
255
255
104
1
254
254
255
255
108
1
254
254
255
255
102
1
254
254
255
255
103
1
254
254
255
255
104
1
254
254
255
255
123
1
254
254
255
255
134
1
254
254
255
255
153
1
254
254
255
255
169
1
254
254
255
255
172
1
254
254
255
255
159
1
254
254
255
255
136
1
254
254
255
255
109
1
254
254
255
255
95
1
254
254
255
255
78
1
254
254
255
255
76
1
254
254
255
255
84
1
254
254
255
255
83
1
254
254
255
255
81
1
254
254
255
255
77
1
254
254
255
255
72
1
254
254
255
255
102
1
254
254
255
255
160
1
254
254
255
255
211
1
254
254
255
255
190
1
254
254
255
255
87
1
254
254
255
255
7
1
254
254
255
255
247
0
254
254
255
255
28
1
254
254
255
255
57
1
254
254
255
255
71
1
254
254
255
255
71
1
254
254
255
255
73
1
254
254
255
255
78
1
254
254
255
255
73
1
254
254
255
255
81
1
254
254
255
255
74
1
254
254
255
255
78
1
254
254
255
255
80
1
254
254
255
255
85
1
254
254
255
255
82
1
254
254
255
255
84
1
254
254
255
255
87
1
254
254
255
255
85
1
254
254
255
255
87
1
254
254
255
255
93
1
254
254
255
255
92
1
254
254
255
255
89
1
254
254
255
255
86
1
254
254
255
255
86
1
254
254
255
255
89
1
254
254
255
255
81
1
254
254
255
255
81
1
254
254
255
255
82
1
254
254
255
255
85
1
254
254
255
255
82
1
254
254
255
255
92
1
254
254
255
255
87
1
254
254
255
255
95
1
254
254
255
255
97
1
254
254
255
255
102
1
254
254
255
255
105
1
254
254
255
255
117
1
254
254
255
255
114
1
254
254
255
255
109
1
254
254
255
255
111
1
254
254
255
255
114
1
254
254
255
255
113
1
254
254
255
255
110
1
254
254
255
255
118
1
254
254
255
255
114
1
254
254
255
255
115
1
254
254
255
255
114
1
254
254
255
255
119
1
254
254
255
255
117
1
254
254
255
255
114
1
254
254
255
255
108
1
254
254
255
255
107
1
254
254
255
255
108
1
254
254
11
0
11
53
0
53
255
255
104
1
254
254
255
255
109
1
254
254
255
255
103
1
254
254
255
255
102
1
254
254
255
255
101
1
254
254
255
255
101
1
254
254
255
255
109
1
254
254
255
255
124
1
254
254
255
255
134
1
254
254
255
255
162
1
254
254
255
255
169
1
254
254
255
255
162
1
254
254
255
255
149
1
254
254
255
255
125
1
254
254
255
255
105
1
254
254
255
255
87
1
254
254
255
255
80
1
254
254
255
255
78
1
254
254
255
255
86
1
254
254
255
255
78
1
254
254
255
255
81
1
254
254
255
255
76
1
254
254
255
255
83
1
254
254
255
255
130
1
254
254
255
255
197
1
254
254
255
255
213
1
254
254
255
255
130
1
254
254
255
255
66
1
254
254
255
255
8
1
254
254
255
255
12
1
254
254
255
255
39
1
254
254
255
255
60
1
254
254
255
255
76
1
254
254
255
255
78
1
254
254
255
255
77
1
254
254
255
255
76
1
254
254
255
255
81
1
254
254
255
255
79
1
254
254
255
255
81
1
254
254
255
255
85
1
254
254
255
255
86
1
254
254
255
255
86
1
254
254
255
255
87
1
254
254
255
255
84
1
254
254
255
255
86
1
254
254
255
255
88
1
254
254
255
255
90
1
254
254
255
255
93
1
254
254
255
255
91
1
254
254
255
255
86
1
254
254
255
255
88
1
254
254
255
255
86
1
254
254
255
255
86
1
254
254
255
255
77
1
254
254
255
255
79
1
254
254
255
255
80
1
254
254
255
255
85
1
254
254
255
255
82
1
254
254
255
255
95
1
254
254
255
255
93
1
254
254
255
255
105
1
254
254
255
255
114
1
254
254
255
255
113
1
254
254
255
255
117
1
254
254
255
255
129
1
254
254
255
255
123
1
254
254
255
255
123
1
254
254
255
255
128
1
254
254
255
255
123
1
254
254
255
255
129
1
254
254
48
55
56
51
48
48
255
255
123
1
254
254
255
255
126
1
254
254
255
255
132
1
254
254
255
255
123
1
254
254
255
255
123
1
254
254
255
255
117
1
254
254
255
255
117
1
254
254
255
255
113
1
254
254
255
255
119
1
254
254
255
255
110
1
254
254
255
255
108
1
254
254
255
255
108
1
254
254
255
255
103
1
254
254
255
255
101
1
254
254
255
255
113
1
254
254
255
255
121
1
254
254
255
255
135
1
254
254
255
255
149
1
254
254
255
255
170
1
254
254
255
255
167
1
254
254
255
255
146
1
254
254
255
255
119
1
254
254
255
255
102
1
254
254
255
255
85
1
254
254
255
255
78
1
254
254
255
255
79
1
254
254
255
255
75
1
254
254
255
255
74
1
254
254
255
255
71
1
254
254
255
255
68
1
254
254
255
255
78
1
254
254
255
255
116
1
254
254
255
255
167
1
254
254
255
255
200
1
254
254
255
255
136
1
254
254
255
255
61
1
254
254
255
255
18
1
254
254
255
255
250
0
254
254
255
255
13
1
254
254
255
255
44
1
254
254
255
255
58
1
254
254
255
255
58
1
254
254
255
255
65
1
254
254
255
255
66
1
254
254
255
255
64
1
254
254
255
255
63
1
254
254
255
255
64
1
254
254
255
255
62
1
254
254
11
0
11
53
0
53
255
255
66
1
254
254
255
255
74
1
254
254
255
255
71
1
254
254
255
255
71
1
254
254
255
255
71
1
254
254
255
255
73
1
254
254
255
255
73
1
254
254
255
255
76
1
254
254
255
255
73
1
254
254
255
255
73
1
254
254
255
255
67
1
254
254
255
255
65
1
254
254
255
255
64
1
254
254
255
255
75
1
254
254
255
255
67
1
254
254
255
255
69
1
254
254
255
255
67
1
254
254
255
255
77
1
254
254
255
255
84
1
254
254
255
255
89
1
254
254
255
255
97
1
254
254
255
255
99
1
254
254
255
255
105
1
254
254
255
255
111
1
254
254
255
255
109
1
254
254
255
255
111
1
254
254
255
255
108
1
254
254
255
255
108
1
254
254
255
255
108
1
254
254
255
255
113
1
254
254
255
255
111
1
254
254
255
255
111
1
254
254
255
255
114
1
254
254
255
255
113
1
254
254
255
255
114
1
254
254
255
255
121
1
254
254
255
255
110
1
254
254
255
255
110
1
254
254
255
255
108
1
254
254
255
255
103
1
254
254
255
255
101
1
254
254
255
255
109
1
254
254
255
255
103
1
254
254
255
255
106
1
254
254
255
255
97
1
254
254
255
255
101
1
254
254
255
255
99
1
254
254
255
255
104
1
254
254
255
255
98
1
254
254
255
255
102
1
254
254
255
255
120
1
254
254
255
255
136
1
254
254
255
255
151
1
254
254
255
255
171
1
254
254
255
255
167
1
254
254
255
255
151
1
254
254
255
255
123
1
254
254
255
255
103
1
254
254
255
255
87
1
254
254
255
255
76
1
254
254
255
255
74
1
254
254
255
255
77
1
254
254
255
255
80
1
254
254
255
255
77
1
254
254
255
255
77
1
254
254
255
255
75
1
254
254
255
255
112
1
254
254
255
255
169
1
254
254
255
255
212
1
254
254
255
255
163
1
254
254
255
255
62
1
254
254
255
255
247
0
254
254
255
255
253
0
254
254
255
255
27
1
254
254
255
255
56
1
254
254
255
255
69
1
254
254
255
255
66
1
254
254
255
255
67
1
254
254
255
255
72
1
254
254
255
255
66
1
254
254
255
255
69
1
254
254
255
255
77
1
254
254
255
255
74
1
254
254
255
255
72
1
254
254
255
255
77
1
254
254
255
255
71
1
254
254
255
255
80
1
254
254
255
255
79
1
254
254
255
255
78
1
254
254
255
255
79
1
254
254
255
255
86
1
254
254
255
255
81
1
254
254
255
255
88
1
254
254
255
255
83
1
254
254
255
255
84
1
254
254
255
255
79
1
254
254
255
255
79
1
254
254
255
255
76
1
254
254
255
255
78
1
254
254
255
255
80
1
254
254
255
255
79
1
254
254
255
255
78
1
254
254
255
255
84
1
254
254
255
255
94
1
254
254
255
255
100
1
254
254
255
255
102
1
254
254
255
255
110
1
254
254
255
255
114
1
254
254
255
255
114
1
254
254
255
255
118
1
254
254
255
255
112
1
254
254
255
255
114
1
254
254
255
255
121
1
254
254
255
255
115
1
254
254
255
255
114
1
254
254
255
255
119
1
254
254
255
255
117
1
254
254
255
255
116
1
254
254
255
255
117
1
254
254
255
255
112
1
254
254
255
255
120
1
254
254
11
0
11
53
0
53
255
255
108
1
254
254
255
255
115
1
254
254
255
255
104
1
254
254
255
255
102
1
254
254
255
255
104
1
254
254
255
255
104
1
254
254
255
255
98
1
254
254
255
255
100
1
254
254
255
255
97
1
254
254
255
255
94
1
254
254
255
255
96
1
254
254
255
255
91
1
254
254
255
255
97
1
254
254
255
255
97
1
254
254
255
255
111
1
254
254
255
255
125
1
254
254
255
255
143
1
254
254
255
255
158
1
254
254
255
255
162
1
254
254
255
255
144
1
254
254
255
255
119
1
254
254
255
255
94
1
254
254
255
255
79
1
254
254
255
255
62
1
254
254
255
255
65
1
254
254
255
255
62
1
254
254
255
255
62
1
254
254
255
255
61
1
254
254
255
255
61
1
254
254
255
255
67
1
254
254
255
255
98
1
254
254
255
255
149
1
254
254
255
255
202
1
254
254
255
255
151
1
254
254
255
255
53
1
254
254
255
255
234
0
254
254
255
255
235
0
254
254
255
255
11
1
254
254
255
255
43
1
254
254
255
255
53
1
254
254
255
255
53
1
254
254
255
255
55
1
254
254
255
255
54
1
254
254
255
255
54
1
254
254
255
255
58
1
254
254
255
255
56
1
254
254
255
255
61
1
254
254
255
255
62
1
254
254
255
255
61
1
254
254
255
255
64
1
254
254
255
255
64
1
254
254
255
255
67
1
254
254
255
255
71
1
254
254
255
255
73
1
254
254
255
255
67
1
254
254
255
255
72
1
254
254
255
255
77
1
254
254
255
255
73
1
254
254
255
255
74
1
254
254
255
255
73
1
254
254
255
255
66
1
254
254
255
255
66
1
254
254
255
255
71
1
254
254
255
255
72
1
254
254
255
255
67
1
254
254
255
255
75
1
254
254
255
255
76
1
254
254
255
255
85
1
254
254
255
255
93
1
254
254
48
55
56
51
48
48
255
255
109
1
254
254
255
255
112
1
254
254
255
255
109
1
254
254
255
255
117
1
254
254
255
255
116
1
254
254
255
255
119
1
254
254
255
255
117
1
254
254
255
255
115
1
254
254
255
255
117
1
254
254
255
255
122
1
254
254
255
255
119
1
254
254
255
255
120
1
254
254
255
255
115
1
254
254
255
255
121
1
254
254
255
255
124
1
254
254
255
255
112
1
254
254
255
255
109
1
254
254
255
255
111
1
254
254
255
255
108
1
254
254
255
255
109
1
254
254
255
255
110
1
254
254
255
255
105
1
254
254
255
255
103
1
254
254
255
255
104
1
254
254
255
255
101
1
254
254
255
255
116
1
254
254
255
255
137
1
254
254
255
255
140
1
254
254
255
255
154
1
254
254
255
255
170
1
254
254
255
255
157
1
254
254
255
255
147
1
254
254
255
255
116
1
254
254
255
255
99
1
254
254
255
255
85
1
254
254
255
255
78
1
254
254
255
255
77
1
254
254
255
255
79
1
254
254
255
255
73
1
254
254
255
255
71
1
254
254
255
255
65
1
254
254
255
255
82
1
254
254
255
255
127
1
254
254
255
255
179
1
254
254
255
255
186
1
254
254
255
255
97
1
254
254
255
255
56
1
254
254
255
255
5
1
254
254
255
255
249
0
254
254
11
0
11
53
0
53
255
255
43
1
254
254
255
255
45
1
254
254
255
255
39
1
254
254
255
255
43
1
254
254
255
255
38
1
254
254
255
255
37
1
254
254
255
255
37
1
254
254
255
255
41
1
254
254
255
255
32
1
254
254
255
255
34
1
254
254
255
255
29
1
254
254
255
255
32
1
254
254
255
255
32
1
254
254
255
255
26
1
254
254
255
255
23
1
254
254
255
255
26
1
254
254
255
255
20
1
254
254
255
255
19
1
254
254
255
255
16
1
254
254
255
255
11
1
254
254
255
255
4
1
254
254
255
255
3
1
254
254
255
255
253
0
254
254
255
255
253
0
254
254
255
255
252
0
254
254
255
255
251
0
254
254
255
255
250
0
254
254
255
255
253
0
254
254
255
255
5
1
254
254
255
255
11
1
254
254
255
255
16
1
254
254
255
255
19
1
254
254
255
255
17
1
254
254
255
255
16
1
254
254
255
255
16
1
254
254
255
255
15
1
254
254
255
255
8
1
254
254
255
255
9
1
254
254
255
255
5
1
254
254
255
255
4
1
254
254
255
255
6
1
254
254
255
255
4
1
254
254
255
255
3
1
254
254
255
255
2
1
254
254
255
255
253
0
254
254
255
255
250
0
254
254
255
255
254
0
254
254
255
255
249
0
254
254
255
255
246
0
254
254
255
255
244
0
254
254
255
255
238
0
254
254
255
255
237
0
254
254
255
255
241
0
254
254
255
255
235
0
254
254
255
255
232
0
254
254
255
255
229
0
254
254
255
255
232
0
254
254
255
255
227
0
254
254
255
255
234
0
254
254
255
255
244
0
254
254
255
255
7
1
254
254
255
255
12
1
254
254
255
255
37
1
254
254
255
255
47
1
254
254
255
255
31
1
254
254
255
255
12
1
254
254
255
255
239
0
254
254
255
255
219
0
254
254
255
255
209
0
254
254
255
255
203
0
254
254
255
255
205
0
254
254
255
255
204
0
254
254
255
255
204
0
254
254
255
255
203
0
254
254
255
255
199
0
254
254
255
255
226
0
254
254
255
255
21
1
254
254
255
255
69
1
254
254
255
255
62
1
254
254
255
255
218
0
254
254
255
255
141
0
254
254
255
255
112
0
254
254
255
255
143
0
254
254
255
255
171
0
254
254
255
255
194
0
254
254
255
255
194
0
254
254
255
255
195
0
254
254
255
255
198
0
254
254
255
255
198
0
254
254
255
255
201
0
254
254
255
255
203
0
254
254
255
255
205
0
254
254
255
255
209
0
254
254
255
255
207
0
254
254
255
255
208
0
254
254
255
255
212
0
254
254
255
255
217
0
254
254
255
255
221
0
254
254
255
255
226
0
254
254
255
255
224
0
254
254
255
255
227
0
254
254
255
255
228
0
254
254
255
255
229
0
254
254
255
255
228
0
254
254
255
255
226
0
254
254
255
255
228
0
254
254
255
255
226
0
254
254
255
255
230
0
254
254
255
255
234
0
254
254
255
255
241
0
254
254
255
255
244
0
254
254
255
255
251
0
254
254
255
255
2
1
254
254
255
255
8
1
254
254
255
255
19
1
254
254
255
255
24
1
254
254
255
255
28
1
254
254
255
255
33
1
254
254
255
255
34
1
254
254
255
255
38
1
254
254
255
255
41
1
254
254
11
0
11
53
0
53
255
255
47
1
254
254
255
255
51
1
254
254
255
255
52
1
254
254
255
255
53
1
254
254
255
255
57
1
254
254
255
255
57
1
254
254
255
255
66
1
254
254
255
255
66
1
254
254
255
255
65
1
254
254
255
255
61
1
254
254
255
255
63
1
254
254
255
255
63
1
254
254
255
255
68
1
254
254
255
255
62
1
254
254
255
255
63
1
254
254
255
255
64
1
254
254
255
255
62
1
254
254
255
255
67
1
254
254
255
255
75
1
254
254
255
255
71
1
254
254
255
255
72
1
254
254
255
255
78
1
254
254
255
255
83
1
254
254
255
255
101
1
254
254
255
255
117
1
254
254
255
255
133
1
254
254
255
255
153
1
254
254
255
255
164
1
254
254
255
255
150
1
254
254
255
255
137
1
254
254
255
255
112
1
254
254
255
255
95
1
254
254
255
255
82
1
254
254
255
255
88
1
254
254
255
255
84
1
254
254
255
255
89
1
254
254
255
255
90
1
254
254
255
255
83
1
254
254
255
255
84
1
254
254
255
255
115
1
254
254
255
255
174
1
254
254
255
255
226
1
254
254
255
255
227
1
254
254
255
255
115
1
254
254
255
255
29
1
254
254
255
255
13
1
254
254
255
255
50
1
254
254
255
255
79
1
254
254
255
255
97
1
254
254
255
255
101
1
254
254
255
255
104
1
254
254
255
255
107
1
254
254
255
255
111
1
254
254
255
255
110
1
254
254
255
255
112
1
254
254
255
255
118
1
254
254
255
255
115
1
254
254
255
255
127
1
254
254
255
255
120
1
254
254
255
255
126
1
254
254
255
255
124
1
254
254
255
255
128
1
254
254
255
255
130
1
254
254
255
255
141
1
254
254
255
255
139
1
254
254
255
255
139
1
254
254
255
255
137
1
254
254
255
255
140
1
254
254
48
55
57
50
57
48
255
255
134
1
254
254
255
255
136
1
254
254
255
255
140
1
254
254
255
255
140
1
254
254
255
255
153
1
254
254
255
255
158
1
254
254
255
255
162
1
254
254
255
255
171
1
254
254
255
255
180
1
254
254
255
255
184
1
254
254
255
255
187
1
254
254
255
255
187
1
254
254
255
255
188
1
254
254
255
255
192
1
254
254
255
255
191
1
254
254
255
255
201
1
254
254
255
255
200
1
254
254
255
255
201
1
254
254
255
255
201
1
254
254
255
255
201
1
254
254
255
255
208
1
254
254
255
255
207
1
254
254
255
255
208
1
254
254
255
255
200
1
254
254
255
255
204
1
254
254
255
255
207
1
254
254
255
255
215
1
254
254
255
255
200
1
254
254
255
255
198
1
254
254
255
255
200
1
254
254
255
255
199
1
254
254
255
255
199
1
254
254
255
255
209
1
254
254
255
255
194
1
254
254
255
255
199
1
254
254
255
255
203
1
254
254
255
255
200
1
254
254
255
255
199
1
254
254
255
255
207
1
254
254
255
255
206
1
254
254
255
255
215
1
254
254
255
255
237
1
254
254
255
255
241
1
254
254
255
255
16
2
254
254
255
255
13
2
254
254
255
255
5
2
254
254
255
255
231
1
254
254
255
255
219
1
254
254
255
255
194
1
254
254
255
255
188
1
254
254
11
0
11
53
0
53
255
255
181
1
254
254
255
255
188
1
254
254
255
255
183
1
254
254
255
255
180
1
254
254
255
255
196
1
254
254
255
255
250
1
254
254
255
255
56
2
254
254
255
255
45
2
254
254
255
255
208
1
254
254
255
255
157
1
254
254
255
255
108
1
254
254
255
255
116
1
254
254
255
255
137
1
254
254
255
255
160
1
254
254
255
255
167
1
254
254
255
255
168
1
254
254
255
255
165
1
254
254
255
255
170
1
254
254
255
255
178
1
254
254
255
255
172
1
254
254
255
255
173
1
254
254
255
255
172
1
254
254
255
255
175
1
254
254
255
255
177
1
254
254
255
255
173
1
254
254
255
255
172
1
254
254
255
255
171
1
254
254
255
255
173
1
254
254
255
255
172
1
254
254
255
255
178
1
254
254
255
255
171
1
254
254
255
255
169
1
254
254
255
255
169
1
254
254
255
255
159
1
254
254
255
255
159
1
254
254
255
255
158
1
254
254
255
255
156
1
254
254
255
255
152
1
254
254
255
255
156
1
254
254
255
255
155
1
254
254
255
255
155
1
254
254
255
255
158
1
254
254
255
255
164
1
254
254
255
255
167
1
254
254
255
255
172
1
254
254
255
255
170
1
254
254
255
255
178
1
254
254
255
255
174
1
254
254
255
255
174
1
254
254
255
255
166
1
254
254
255
255
169
1
254
254
255
255
164
1
254
254
255
255
167
1
254
254
255
255
163
1
254
254
255
255
163
1
254
254
255
255
160
1
254
254
255
255
165
1
254
254
255
255
160
1
254
254
255
255
158
1
254
254
255
255
154
1
254
254
255
255
152
1
254
254
255
255
147
1
254
254
255
255
153
1
254
254
255
255
154
1
254
254
255
255
140
1
254
254
255
255
140
1
254
254
255
255
136
1
254
254
255
255
134
1
254
254
255
255
134
1
254
254
255
255
131
1
254
254
255
255
129
1
254
254
255
255
128
1
254
254
255
255
130
1
254
254
255
255
145
1
254
254
255
255
174
1
254
254
255
255
175
1
254
254
255
255
201
1
254
254
255
255
193
1
254
254
255
255
179
1
254
254
255
255
151
1
254
254
255
255
134
1
254
254
255
255
113
1
254
254
255
255
107
1
254
254
255
255
104
1
254
254
255
255
107
1
254
254
255
255
107
1
254
254
255
255
111
1
254
254
255
255
104
1
254
254
255
255
111
1
254
254
255
255
149
1
254
254
255
255
203
1
254
254
255
255
242
1
254
254
255
255
168
1
254
254
255
255
93
1
254
254
255
255
29
1
254
254
255
255
39
1
254
254
255
255
62
1
254
254
255
255
97
1
254
254
255
255
107
1
254
254
255
255
105
1
254
254
255
255
101
1
254
254
255
255
104
1
254
254
255
255
107
1
254
254
255
255
112
1
254
254
255
255
109
1
254
254
255
255
109
1
254
254
255
255
111
1
254
254
255
255
112
1
254
254
255
255
110
1
254
254
255
255
112
1
254
254
255
255
112
1
254
254
255
255
118
1
254
254
255
255
110
1
254
254
255
255
114
1
254
254
255
255
121
1
254
254
255
255
115
1
254
254
255
255
115
1
254
254
255
255
115
1
254
254
255
255
107
1
254
254
255
255
103
1
254
254
255
255
108
1
254
254
11
0
11
53
0
53
255
255
105
1
254
254
255
255
102
1
254
254
255
255
108
1
254
254
255
255
108
1
254
254
255
255
113
1
254
254
255
255
122
1
254
254
255
255
128
1
254
254
255
255
124
1
254
254
255
255
127
1
254
254
255
255
129
1
254
254
255
255
127
1
254
254
255
255
126
1
254
254
255
255
130
1
254
254
255
255
131
1
254
254
255
255
122
1
254
254
255
255
122
1
254
254
255
255
125
1
254
254
255
255
128
1
254
254
255
255
120
1
254
254
255
255
125
1
254
254
255
255
118
1
254
254
255
255
118
1
254
254
255
255
114
1
254
254
255
255
113
1
254
254
255
255
107
1
254
254
255
255
108
1
254
254
255
255
103
1
254
254
255
255
98
1
254
254
255
255
97
1
254
254
255
255
100
1
254
254
255
255
96
1
254
254
255
255
94
1
254
254
255
255
90
1
254
254
255
255
90
1
254
254
255
255
93
1
254
254
255
255
89
1
254
254
255
255
87
1
254
254
255
255
99
1
254
254
255
255
115
1
254
254
255
255
128
1
254
254
255
255
146
1
254
254
255
255
156
1
254
254
255
255
149
1
254
254
255
255
135
1
254
254
255
255
100
1
254
254
255
255
89
1
254
254
255
255
77
1
254
254
255
255
65
1
254
254
255
255
60
1
254
254
255
255
63
1
254
254
255
255
57
1
254
254
255
255
63
1
254
254
255
255
57
1
254
254
255
255
67
1
254
254
255
255
119
1
254
254
255
255
178
1
254
254
255
255
199
1
254
254
255
255
110
1
254
254
255
255
14
1
254
254
255
255
221
0
254
254
255
255
245
0
254
254
255
255
27
1
254
254
255
255
52
1
254
254
255
255
57
1
254
254
255
255
53
1
254
254
255
255
55
1
254
254
255
255
56
1
254
254
48
55
57
51
48
48
255
255
59
1
254
254
255
255
61
1
254
254
255
255
63
1
254
254
255
255
65
1
254
254
255
255
69
1
254
254
255
255
67
1
254
254
255
255
73
1
254
254
255
255
70
1
254
254
255
255
73
1
254
254
255
255
71
1
254
254
255
255
77
1
254
254
255
255
69
1
254
254
255
255
69
1
254
254
255
255
68
1
254
254
255
255
66
1
254
254
255
255
65
1
254
254
255
255
67
1
254
254
255
255
68
1
254
254
255
255
66
1
254
254
255
255
69
1
254
254
255
255
76
1
254
254
255
255
83
1
254
254
255
255
87
1
254
254
255
255
88
1
254
254
255
255
94
1
254
254
255
255
94
1
254
254
255
255
99
1
254
254
255
255
104
1
254
254
255
255
101
1
254
254
255
255
101
1
254
254
255
255
99
1
254
254
255
255
98
1
254
254
255
255
97
1
254
254
255
255
101
1
254
254
255
255
100
1
254
254
255
255
93
1
254
254
255
255
98
1
254
254
255
255
98
1
254
254
255
255
102
1
254
254
255
255
96
1
254
254
255
255
94
1
254
254
255
255
87
1
254
254
255
255
90
1
254
254
255
255
89
1
254
254
255
255
92
1
254
254
255
255
85
1
254
254
255
255
86
1
254
254
255
255
81
1
254
254
255
255
85
1
254
254
255
255
81
1
254
254
255
255
87
1
254
254
11
0
11
53
0
53
255
255
89
1
254
254
255
255
89
1
254
254
255
255
106
1
254
254
255
255
118
1
254
254
255
255
134
1
254
254
255
255
156
1
254
254
255
255
161
1
254
254
255
255
144
1
254
254
255
255
118
1
254
254
255
255
99
1
254
254
255
255
79
1
254
254
255
255
71
1
254
254
255
255
74
1
254
254
255
255
72
1
254
254
255
255
73
1
254
254
255
255
76
1
254
254
255
255
73
1
254
254
255
255
80
1
254
254
255
255
119
1
254
254
255
255
174
1
254
254
255
255
220
1
254
254
255
255
161
1
254
254
255
255
78
1
254
254
255
255
21
1
254
254
255
255
11
1
254
254
255
255
27
1
254
254
255
255
58
1
254
254
255
255
76
1
254
254
255
255
83
1
254
254
255
255
82
1
254
254
255
255
85
1
254
254
255
255
82
1
254
254
255
255
83
1
254
254
255
255
83
1
254
254
255
255
91
1
254
254
255
255
85
1
254
254
255
255
92
1
254
254
255
255
92
1
254
254
255
255
93
1
254
254
255
255
93
1
254
254
255
255
99
1
254
254
255
255
94
1
254
254
255
255
101
1
254
254
255
255
98
1
254
254
255
255
98
1
254
254
255
255
98
1
254
254
255
255
96
1
254
254
255
255
88
1
254
254
255
255
91
1
254
254
255
255
91
1
254
254
255
255
86
1
254
254
255
255
94
1
254
254
255
255
95
1
254
254
255
255
98
1
254
254
255
255
98
1
254
254
255
255
104
1
254
254
255
255
115
1
254
254
255
255
123
1
254
254
255
255
124
1
254
254
255
255
126
1
254
254
255
255
129
1
254
254
255
255
127
1
254
254
255
255
127
1
254
254
255
255
132
1
254
254
255
255
130
1
254
254
255
255
124
1
254
254
255
255
122
1
254
254
255
255
124
1
254
254
255
255
130
1
254
254
255
255
124
1
254
254
255
255
128
1
254
254
255
255
122
1
254
254
255
255
119
1
254
254
255
255
119
1
